# xPDFsuite Configuration #
[PDF]
wavelength = 0.7093
dataformat = Qnm
inputfile = aZrP.chi
backgroundfile = kapton_background.chi
mode = xray
bgscale = 1.0
composition = Zr H2 P2 O8 H2 O
outputtype = gr
qmaxinst = 25.0
qmin = 0.49995
qmax = 18.0
rmax = 100.0
rmin = 0.0
rstep = 0.01
rpoly = 0.9

#### start data
#S 1
#L r($\AA$)  G($\AA^{-2}$)
0 0
0.01 -0.0320424
0.02 -0.0628961
0.03 -0.0915098
0.04 -0.116907
0.05 -0.138216
0.06 -0.154703
0.07 -0.165789
0.08 -0.171078
0.09 -0.169994
0.1 -0.162712
0.11 -0.149685
0.12 -0.131347
0.13 -0.108309
0.14 -0.0813425
0.15 -0.0513565
0.16 -0.0193664
0.17 0.0135293
0.18 0.0460591
0.19 0.0770397
0.2 0.105384
0.21 0.130083
0.22 0.15024
0.23 0.165099
0.24 0.174073
0.25 0.176764
0.26 0.17242
0.27 0.161588
0.28 0.144621
0.29 0.122013
0.3 0.094455
0.31 0.062813
0.32 0.0281068
0.33 -0.00852105
0.34 -0.0458063
0.35 -0.0822939
0.36 -0.116667
0.37 -0.147672
0.38 -0.174132
0.39 -0.194985
0.4 -0.209318
0.41 -0.216397
0.42 -0.215573
0.43 -0.205998
0.44 -0.188306
0.45 -0.162735
0.46 -0.129766
0.47 -0.09011
0.48 -0.0446953
0.49 0.00535959
0.5 0.0587733
0.51 0.114168
0.52 0.169778
0.53 0.224014
0.54 0.275334
0.55 0.322246
0.56 0.363351
0.57 0.397385
0.58 0.423255
0.59 0.439678
0.6 0.445789
0.61 0.441758
0.62 0.427507
0.63 0.40323
0.64 0.369389
0.65 0.3267
0.66 0.276121
0.67 0.218798
0.68 0.155765
0.69 0.0891492
0.7 0.0205734
0.71 -0.0482897
0.72 -0.115763
0.73 -0.180209
0.74 -0.240077
0.75 -0.293944
0.76 -0.340005
0.77 -0.377369
0.78 -0.405497
0.79 -0.423874
0.8 -0.432255
0.81 -0.430668
0.82 -0.419412
0.83 -0.399047
0.84 -0.370162
0.85 -0.333659
0.86 -0.291339
0.87 -0.244605
0.88 -0.194964
0.89 -0.143989
0.9 -0.0932712
0.91 -0.0443782
0.92 0.001189
0.93 0.0414946
0.94 0.0756125
0.95 0.102547
0.96 0.121484
0.97 0.13184
0.98 0.133271
0.99 0.125682
1 0.109223
1.01 0.0838463
1.02 0.0503804
1.03 0.0100252
1.04 -0.0362036
1.05 -0.0871574
1.06 -0.14159
1.07 -0.198195
1.08 -0.255644
1.09 -0.312589
1.1 -0.36754
1.11 -0.4194
1.12 -0.467145
1.13 -0.509896
1.14 -0.546943
1.15 -0.577756
1.16 -0.60199
1.17 -0.619488
1.18 -0.62975
1.19 -0.633444
1.2 -0.631059
1.21 -0.623097
1.22 -0.610159
1.23 -0.592913
1.24 -0.572064
1.25 -0.548324
1.26 -0.52231
1.27 -0.494712
1.28 -0.466167
1.29 -0.437093
1.3 -0.407782
1.31 -0.378391
1.32 -0.348935
1.33 -0.319291
1.34 -0.289194
1.35 -0.258154
1.36 -0.225718
1.37 -0.191324
1.38 -0.154371
1.39 -0.114252
1.4 -0.0703912
1.41 -0.0222797
1.42 0.0304918
1.43 0.0885502
1.44 0.151772
1.45 0.21989
1.46 0.292552
1.47 0.369173
1.48 0.448932
1.49 0.530774
1.5 0.613418
1.51 0.695292
1.52 0.774444
1.53 0.849087
1.54 0.917285
1.55 0.977058
1.56 1.02643
1.57 1.0635
1.58 1.08646
1.59 1.09371
1.6 1.08213
1.61 1.05219
1.62 1.00326
1.63 0.935034
1.64 0.847645
1.65 0.741654
1.66 0.618074
1.67 0.478364
1.68 0.323719
1.69 0.157108
1.7 -0.018168
1.71 -0.199003
1.72 -0.382022
1.73 -0.563648
1.74 -0.740174
1.75 -0.907839
1.76 -1.06252
1.77 -1.19943
1.78 -1.31615
1.79 -1.40963
1.8 -1.47719
1.81 -1.51658
1.82 -1.52605
1.83 -1.50443
1.84 -1.45111
1.85 -1.36347
1.86 -1.24464
1.87 -1.09642
1.88 -0.920824
1.89 -0.720447
1.9 -0.498409
1.91 -0.258295
1.92 -0.00408613
1.93 0.260164
1.94 0.529289
1.95 0.798159
1.96 1.06206
1.97 1.31636
1.98 1.5566
1.99 1.77855
2 1.97837
2.01 2.15222
2.02 2.29492
2.03 2.40637
2.04 2.4849
2.05 2.52949
2.06 2.53973
2.07 2.51587
2.08 2.45878
2.09 2.36991
2.1 2.24928
2.11 2.1013
2.12 1.92969
2.13 1.73787
2.14 1.52953
2.15 1.30855
2.16 1.07894
2.17 0.844706
2.18 0.609934
2.19 0.378951
2.2 0.155301
2.21 -0.057774
2.22 -0.257385
2.23 -0.44104
2.24 -0.606683
2.25 -0.752713
2.26 -0.87793
2.27 -0.979733
2.28 -1.05999
2.29 -1.11903
2.3 -1.15763
2.31 -1.1769
2.32 -1.17828
2.33 -1.16346
2.34 -1.13438
2.35 -1.09247
2.36 -1.04054
2.37 -0.981213
2.38 -0.916671
2.39 -0.849036
2.4 -0.78031
2.41 -0.712339
2.42 -0.64678
2.43 -0.585224
2.44 -0.529202
2.45 -0.479356
2.46 -0.436363
2.47 -0.400667
2.48 -0.372488
2.49 -0.35184
2.5 -0.338556
2.51 -0.332308
2.52 -0.333173
2.53 -0.339985
2.54 -0.352051
2.55 -0.368683
2.56 -0.389182
2.57 -0.412859
2.58 -0.439057
2.59 -0.467164
2.6 -0.496675
2.61 -0.527041
2.62 -0.557812
2.63 -0.588666
2.64 -0.619345
2.65 -0.649652
2.66 -0.679441
2.67 -0.7086
2.68 -0.737032
2.69 -0.764609
2.7 -0.791314
2.71 -0.817058
2.72 -0.841731
2.73 -0.86519
2.74 -0.887264
2.75 -0.907745
2.76 -0.926397
2.77 -0.942771
2.78 -0.956692
2.79 -0.967921
2.8 -0.976198
2.81 -0.981294
2.82 -0.983032
2.83 -0.981298
2.84 -0.976067
2.85 -0.96727
2.86 -0.955097
2.87 -0.940066
2.88 -0.922643
2.89 -0.903421
2.9 -0.88312
2.91 -0.862575
2.92 -0.842721
2.93 -0.824599
2.94 -0.809621
2.95 -0.798726
2.96 -0.793004
2.97 -0.793499
2.98 -0.801166
2.99 -0.816837
3 -0.841183
3.01 -0.874677
3.02 -0.918208
3.03 -0.971332
3.04 -1.03342
3.05 -1.10381
3.06 -1.18152
3.07 -1.26526
3.08 -1.35346
3.09 -1.44423
3.1 -1.5354
3.11 -1.62425
3.12 -1.70821
3.13 -1.78459
3.14 -1.85068
3.15 -1.90371
3.16 -1.94104
3.17 -1.9601
3.18 -1.95856
3.19 -1.93204
3.2 -1.88077
3.21 -1.80354
3.22 -1.6995
3.23 -1.5683
3.24 -1.41008
3.25 -1.22552
3.26 -1.01583
3.27 -0.781528
3.28 -0.525671
3.29 -0.251995
3.3 0.0362212
3.31 0.33532
3.32 0.641332
3.33 0.950043
3.34 1.25708
3.35 1.55773
3.36 1.84652
3.37 2.11964
3.38 2.37296
3.39 2.60267
3.4 2.80531
3.41 2.97785
3.42 3.11777
3.43 3.2231
3.44 3.28937
3.45 3.31841
3.46 3.31068
3.47 3.26686
3.48 3.18819
3.49 3.07653
3.5 2.93428
3.51 2.76433
3.52 2.569
3.53 2.3525
3.54 2.11999
3.55 1.87567
3.56 1.6238
3.57 1.36867
3.58 1.11447
3.59 0.865235
3.6 0.624911
3.61 0.398186
3.62 0.187286
3.63 -0.00520681
3.64 -0.177183
3.65 -0.327028
3.66 -0.453638
3.67 -0.55642
3.68 -0.635287
3.69 -0.688974
3.7 -0.719655
3.71 -0.729227
3.72 -0.719388
3.73 -0.692136
3.74 -0.649699
3.75 -0.594483
3.76 -0.529001
3.77 -0.455622
3.78 -0.377088
3.79 -0.296273
3.8 -0.215484
3.81 -0.13684
3.82 -0.0622409
3.83 0.00666722
3.84 0.0685104
3.85 0.122184
3.86 0.166018
3.87 0.200364
3.88 0.225062
3.89 0.240209
3.9 0.246135
3.91 0.243376
3.92 0.232638
3.93 0.214769
3.94 0.190395
3.95 0.160839
3.96 0.127358
3.97 0.091004
3.98 0.0527928
3.99 0.0136866
4 -0.0254275
4.01 -0.0637507
4.02 -0.100524
4.03 -0.135001
4.04 -0.166819
4.05 -0.195593
4.06 -0.221027
4.07 -0.242892
4.08 -0.261018
4.09 -0.275274
4.1 -0.285554
4.11 -0.291392
4.12 -0.292996
4.13 -0.290271
4.14 -0.283058
4.15 -0.271165
4.16 -0.254361
4.17 -0.232385
4.18 -0.204947
4.19 -0.171426
4.2 -0.131531
4.21 -0.0852373
4.22 -0.0323117
4.23 0.0274147
4.24 0.0940214
4.25 0.167476
4.26 0.247613
4.27 0.334212
4.28 0.427083
4.29 0.52501
4.3 0.627092
4.31 0.732237
4.32 0.839169
4.33 0.946444
4.34 1.05246
4.35 1.15549
4.36 1.25318
4.37 1.34373
4.38 1.42532
4.39 1.49607
4.4 1.55417
4.41 1.59795
4.42 1.62589
4.43 1.63669
4.44 1.62851
4.45 1.60032
4.46 1.55277
4.47 1.48585
4.48 1.39994
4.49 1.29578
4.5 1.17446
4.51 1.03745
4.52 0.886448
4.53 0.7228
4.54 0.55012
4.55 0.371
4.56 0.188172
4.57 0.00444515
4.58 -0.177353
4.59 -0.354448
4.6 -0.524178
4.61 -0.683245
4.62 -0.829583
4.63 -0.961621
4.64 -1.07785
4.65 -1.17716
4.66 -1.25885
4.67 -1.32266
4.68 -1.36878
4.69 -1.39732
4.7 -1.40896
4.71 -1.40632
4.72 -1.39125
4.73 -1.36588
4.74 -1.33255
4.75 -1.29378
4.76 -1.25213
4.77 -1.21018
4.78 -1.17085
4.79 -1.13644
4.8 -1.10898
4.81 -1.09018
4.82 -1.08138
4.83 -1.08347
4.84 -1.0969
4.85 -1.12159
4.86 -1.1575
4.87 -1.20314
4.88 -1.25637
4.89 -1.31502
4.9 -1.37648
4.91 -1.4378
4.92 -1.49572
4.93 -1.54678
4.94 -1.58709
4.95 -1.61186
4.96 -1.6184
4.97 -1.60337
4.98 -1.5637
4.99 -1.49672
5 -1.40021
5.01 -1.27247
5.02 -1.11241
5.03 -0.916912
5.04 -0.688598
5.05 -0.429057
5.06 -0.14013
5.07 0.175648
5.08 0.515076
5.09 0.874338
5.1 1.24907
5.11 1.63465
5.12 2.02516
5.13 2.41453
5.14 2.79704
5.15 3.16693
5.16 3.51853
5.17 3.84636
5.18 4.14524
5.19 4.40998
5.2 4.63312
5.21 4.81409
5.22 4.95009
5.23 5.03903
5.24 5.07962
5.25 5.07137
5.26 5.01462
5.27 4.91049
5.28 4.7578
5.29 4.56173
5.3 4.32682
5.31 4.05712
5.32 3.75711
5.33 3.43171
5.34 3.08611
5.35 2.72566
5.36 2.35569
5.37 1.98214
5.38 1.61074
5.39 1.24643
5.4 0.89378
5.41 0.556943
5.42 0.239555
5.43 -0.0553006
5.44 -0.325122
5.45 -0.565376
5.46 -0.777421
5.47 -0.960809
5.48 -1.11569
5.49 -1.24279
5.5 -1.34335
5.51 -1.41906
5.52 -1.47203
5.53 -1.50358
5.54 -1.51726
5.55 -1.51661
5.56 -1.50456
5.57 -1.48398
5.58 -1.45769
5.59 -1.42833
5.6 -1.39832
5.61 -1.3699
5.62 -1.34522
5.63 -1.32558
5.64 -1.31198
5.65 -1.3051
5.66 -1.30521
5.67 -1.31225
5.68 -1.3258
5.69 -1.34518
5.7 -1.36972
5.71 -1.39776
5.72 -1.42788
5.73 -1.45863
5.74 -1.48852
5.75 -1.51606
5.76 -1.53984
5.77 -1.55857
5.78 -1.57075
5.79 -1.57536
5.8 -1.57203
5.81 -1.56032
5.82 -1.54008
5.83 -1.51138
5.84 -1.47457
5.85 -1.43022
5.86 -1.37904
5.87 -1.32174
5.88 -1.26003
5.89 -1.19517
5.9 -1.1285
5.91 -1.06137
5.92 -0.995108
5.93 -0.930997
5.94 -0.870205
5.95 -0.81417
5.96 -0.763575
5.97 -0.718962
5.98 -0.680749
5.99 -0.649131
6 -0.624078
6.01 -0.605336
6.02 -0.592443
6.03 -0.584918
6.04 -0.581875
6.05 -0.582031
6.06 -0.584285
6.07 -0.587475
6.08 -0.590409
6.09 -0.591908
6.1 -0.590843
6.11 -0.586144
6.12 -0.576421
6.13 -0.561282
6.14 -0.540174
6.15 -0.512743
6.16 -0.478843
6.17 -0.438551
6.18 -0.392157
6.19 -0.340165
6.2 -0.283014
6.21 -0.221883
6.22 -0.157993
6.23 -0.0925351
6.24 -0.0267928
6.25 0.0378987
6.26 0.100186
6.27 0.158734
6.28 0.212071
6.29 0.25866
6.3 0.297807
6.31 0.328633
6.32 0.350435
6.33 0.362709
6.34 0.365157
6.35 0.357699
6.36 0.340469
6.37 0.313002
6.38 0.276739
6.39 0.232499
6.4 0.181217
6.41 0.123958
6.42 0.0618943
6.43 -0.0037282
6.44 -0.0716196
6.45 -0.140459
6.46 -0.208803
6.47 -0.275408
6.48 -0.339154
6.49 -0.399029
6.5 -0.454157
6.51 -0.503811
6.52 -0.547425
6.53 -0.584466
6.54 -0.614327
6.55 -0.637487
6.56 -0.654086
6.57 -0.66441
6.58 -0.668876
6.59 -0.668007
6.6 -0.66242
6.61 -0.652791
6.62 -0.63963
6.63 -0.623954
6.64 -0.606529
6.65 -0.58803
6.66 -0.56907
6.67 -0.550185
6.68 -0.531818
6.69 -0.514309
6.7 -0.497937
6.71 -0.482821
6.72 -0.468876
6.73 -0.455964
6.74 -0.443851
6.75 -0.432219
6.76 -0.420678
6.77 -0.40879
6.78 -0.39607
6.79 -0.381889
6.8 -0.365859
6.81 -0.347554
6.82 -0.326606
6.83 -0.302719
6.84 -0.275691
6.85 -0.245424
6.86 -0.211933
6.87 -0.175152
6.88 -0.135524
6.89 -0.093537
6.9 -0.049712
6.91 -0.00467611
6.92 0.0408521
6.93 0.0860778
6.94 0.130148
6.95 0.172068
6.96 0.210744
6.97 0.245416
6.98 0.275225
6.99 0.299371
7 0.31713
7.01 0.327878
7.02 0.331102
7.03 0.326416
7.04 0.312781
7.05 0.290892
7.06 0.260835
7.07 0.222843
7.08 0.177291
7.09 0.124692
7.1 0.0656808
7.11 0.00100587
7.12 -0.0687244
7.13 -0.142358
7.14 -0.218742
7.15 -0.29686
7.16 -0.375691
7.17 -0.454225
7.18 -0.531484
7.19 -0.60654
7.2 -0.678436
7.21 -0.746135
7.22 -0.809205
7.23 -0.86709
7.24 -0.919343
7.25 -0.96563
7.26 -1.00573
7.27 -1.03953
7.28 -1.06701
7.29 -1.08774
7.3 -1.10238
7.31 -1.11126
7.32 -1.11467
7.33 -1.11296
7.34 -1.10653
7.35 -1.09574
7.36 -1.08101
7.37 -1.06253
7.38 -1.04074
7.39 -1.01611
7.4 -0.988931
7.41 -0.959437
7.42 -0.927829
7.43 -0.894262
7.44 -0.858853
7.45 -0.821658
7.46 -0.782618
7.47 -0.741904
7.48 -0.699535
7.49 -0.655531
7.5 -0.609921
7.51 -0.562753
7.52 -0.514107
7.53 -0.464095
7.54 -0.412801
7.55 -0.360524
7.56 -0.307558
7.57 -0.254224
7.58 -0.200892
7.59 -0.147975
7.6 -0.0959269
7.61 -0.0452281
7.62 0.00352737
7.63 0.0497318
7.64 0.093003
7.65 0.132878
7.66 0.168937
7.67 0.200822
7.68 0.228247
7.69 0.251017
7.7 0.26902
7.71 0.281871
7.72 0.290184
7.73 0.294261
7.74 0.294535
7.75 0.291571
7.76 0.286059
7.77 0.278808
7.78 0.270736
7.79 0.262936
7.8 0.25662
7.81 0.252929
7.82 0.253041
7.83 0.258132
7.84 0.269357
7.85 0.287819
7.86 0.31454
7.87 0.350732
7.88 0.397633
7.89 0.455208
7.9 0.523865
7.91 0.603813
7.92 0.695046
7.93 0.797333
7.94 0.91021
7.95 1.03298
7.96 1.16542
7.97 1.30549
7.98 1.45172
7.99 1.60252
8 1.7561
8.01 1.91055
8.02 2.06385
8.03 2.21388
8.04 2.35806
8.05 2.49402
8.06 2.61988
8.07 2.73356
8.08 2.83311
8.09 2.91674
8.1 2.98281
8.11 3.0299
8.12 3.05644
8.13 3.06021
8.14 3.0422
8.15 3.00217
8.16 2.94014
8.17 2.85649
8.18 2.75186
8.19 2.62722
8.2 2.48383
8.21 2.322
8.22 2.14478
8.23 1.95452
8.24 1.75344
8.25 1.54391
8.26 1.32842
8.27 1.10953
8.28 0.889816
8.29 0.672038
8.3 0.459057
8.31 0.253154
8.32 0.0565726
8.33 -0.128621
8.34 -0.300571
8.35 -0.457662
8.36 -0.598542
8.37 -0.721985
8.38 -0.825735
8.39 -0.910931
8.4 -0.977485
8.41 -1.02561
8.42 -1.05583
8.43 -1.06891
8.44 -1.06592
8.45 -1.04814
8.46 -1.01624
8.47 -0.972671
8.48 -0.919603
8.49 -0.858962
8.5 -0.792718
8.51 -0.722856
8.52 -0.651328
8.53 -0.580023
8.54 -0.510849
8.55 -0.44573
8.56 -0.385948
8.57 -0.332721
8.58 -0.287034
8.59 -0.249628
8.6 -0.220983
8.61 -0.201311
8.62 -0.190557
8.63 -0.189157
8.64 -0.195652
8.65 -0.209153
8.66 -0.228577
8.67 -0.252653
8.68 -0.27995
8.69 -0.308915
8.7 -0.337903
8.71 -0.365018
8.72 -0.388389
8.73 -0.406423
8.74 -0.417533
8.75 -0.420251
8.76 -0.413256
8.77 -0.395413
8.78 -0.365797
8.79 -0.323418
8.8 -0.267187
8.81 -0.197929
8.82 -0.115832
8.83 -0.0213687
8.84 0.0847099
8.85 0.201382
8.86 0.32737
8.87 0.461163
8.88 0.601391
8.89 0.745514
8.9 0.891385
8.91 1.03682
8.92 1.1796
8.93 1.31745
8.94 1.44813
8.95 1.56947
8.96 1.67873
8.97 1.77375
8.98 1.85335
8.99 1.91604
9 1.96053
9.01 1.98581
9.02 1.99113
9.03 1.97604
9.04 1.9401
9.05 1.88207
9.06 1.80414
9.07 1.70709
9.08 1.59193
9.09 1.45994
9.1 1.31259
9.11 1.15156
9.12 0.978671
9.13 0.795307
9.14 0.604247
9.15 0.407826
9.16 0.208177
9.17 0.00741984
9.18 -0.192374
9.19 -0.389207
9.2 -0.581182
9.21 -0.766207
9.22 -0.942306
9.23 -1.10845
9.24 -1.26338
9.25 -1.40602
9.26 -1.53548
9.27 -1.65106
9.28 -1.75222
9.29 -1.83858
9.3 -1.90857
9.31 -1.96359
9.32 -2.00378
9.33 -2.02937
9.34 -2.04075
9.35 -2.03836
9.36 -2.02272
9.37 -1.99443
9.38 -1.9534
9.39 -1.90075
9.4 -1.83756
9.41 -1.76455
9.42 -1.68244
9.43 -1.59195
9.44 -1.49381
9.45 -1.38875
9.46 -1.27733
9.47 -1.16015
9.48 -1.03838
9.49 -0.912763
9.5 -0.784071
9.51 -0.653095
9.52 -0.52065
9.53 -0.387576
9.54 -0.254746
9.55 -0.123242
9.56 0.00601616
9.57 0.132083
9.58 0.253983
9.59 0.370736
9.6 0.481354
9.61 0.584866
9.62 0.680318
9.63 0.766268
9.64 0.841838
9.65 0.90664
9.66 0.959972
9.67 1.00123
9.68 1.02994
9.69 1.04571
9.7 1.04833
9.71 1.03747
9.72 1.01241
9.73 0.974434
9.74 0.923956
9.75 0.861522
9.76 0.787828
9.77 0.703701
9.78 0.610093
9.79 0.508062
9.8 0.398283
9.81 0.282546
9.82 0.162259
9.83 0.0387271
9.84 -0.0867433
9.85 -0.212866
9.86 -0.338398
9.87 -0.462155
9.88 -0.582868
9.89 -0.699377
9.9 -0.810979
9.91 -0.916937
9.92 -1.01664
9.93 -1.10963
9.94 -1.19557
9.95 -1.27426
9.96 -1.34559
9.97 -1.40903
9.98 -1.46541
9.99 -1.51502
10 -1.5582
10.01 -1.59536
10.02 -1.62694
10.03 -1.65339
10.04 -1.67518
10.05 -1.69248
10.06 -1.70589
10.07 -1.71587
10.08 -1.72268
10.09 -1.7265
10.1 -1.72744
10.11 -1.7255
10.12 -1.72063
10.13 -1.71256
10.14 -1.7009
10.15 -1.68554
10.16 -1.66611
10.17 -1.6422
10.18 -1.6134
10.19 -1.57928
10.2 -1.53942
10.21 -1.49346
10.22 -1.44047
10.23 -1.38079
10.24 -1.31433
10.25 -1.24108
10.26 -1.16117
10.27 -1.07484
10.28 -0.982495
10.29 -0.884662
10.3 -0.781782
10.31 -0.674865
10.32 -0.565047
10.33 -0.453388
10.34 -0.341037
10.35 -0.229211
10.36 -0.119172
10.37 -0.0122074
10.38 0.090275
10.39 0.186596
10.4 0.275918
10.41 0.357152
10.42 0.429326
10.43 0.491602
10.44 0.543302
10.45 0.58392
10.46 0.613138
10.47 0.629886
10.48 0.63509
10.49 0.629244
10.5 0.612888
10.51 0.586754
10.52 0.551759
10.53 0.508982
10.54 0.459653
10.55 0.40495
10.56 0.346523
10.57 0.286159
10.58 0.225435
10.59 0.165939
10.6 0.109238
10.61 0.0568517
10.62 0.0102232
10.63 -0.029205
10.64 -0.0594955
10.65 -0.0802314
10.66 -0.0905429
10.67 -0.0897391
10.68 -0.0773184
10.69 -0.0529735
10.7 -0.016594
10.71 0.0317355
10.72 0.0925543
10.73 0.164762
10.74 0.247416
10.75 0.339701
10.76 0.440665
10.77 0.549243
10.78 0.664273
10.79 0.78452
10.8 0.908788
10.81 1.03565
10.82 1.16356
10.83 1.29119
10.84 1.41727
10.85 1.54057
10.86 1.65992
10.87 1.77423
10.88 1.88249
10.89 1.98309
10.9 2.07583
10.91 2.16008
10.92 2.23529
10.93 2.30102
10.94 2.35696
10.95 2.40291
10.96 2.43876
10.97 2.46389
10.98 2.4787
10.99 2.48373
11 2.47925
11.01 2.4656
11.02 2.44321
11.03 2.41252
11.04 2.37404
11.05 2.32814
11.06 2.27519
11.07 2.2163
11.08 2.15209
11.09 2.08321
11.1 2.0103
11.11 1.93401
11.12 1.85499
11.13 1.77385
11.14 1.69115
11.15 1.60764
11.16 1.5239
11.17 1.44046
11.18 1.35781
11.19 1.27641
11.2 1.19667
11.21 1.11893
11.22 1.04363
11.23 0.97102
11.24 0.901162
11.25 0.834157
11.26 0.770042
11.27 0.708792
11.28 0.650316
11.29 0.594463
11.3 0.541059
11.31 0.489946
11.32 0.440613
11.33 0.392702
11.34 0.345829
11.35 0.299586
11.36 0.253556
11.37 0.207327
11.38 0.160494
11.39 0.112577
11.4 0.0632608
11.41 0.0122802
11.42 -0.0405922
11.43 -0.095517
11.44 -0.152581
11.45 -0.211791
11.46 -0.27307
11.47 -0.336325
11.48 -0.401286
11.49 -0.4675
11.5 -0.534538
11.51 -0.601901
11.52 -0.669028
11.53 -0.735307
11.54 -0.80009
11.55 -0.862685
11.56 -0.922097
11.57 -0.977859
11.58 -1.02932
11.59 -1.07587
11.6 -1.11696
11.61 -1.15211
11.62 -1.1809
11.63 -1.20304
11.64 -1.21783
11.65 -1.22545
11.66 -1.22612
11.67 -1.21999
11.68 -1.20731
11.69 -1.18843
11.7 -1.16379
11.71 -1.13393
11.72 -1.09933
11.73 -1.06058
11.74 -1.01868
11.75 -0.974359
11.76 -0.928322
11.77 -0.881269
11.78 -0.833854
11.79 -0.786678
11.8 -0.74027
11.81 -0.695216
11.82 -0.651766
11.83 -0.610122
11.84 -0.570381
11.85 -0.532517
11.86 -0.496392
11.87 -0.461753
11.88 -0.42824
11.89 -0.395407
11.9 -0.362631
11.91 -0.329273
11.92 -0.294674
11.93 -0.258156
11.94 -0.219037
11.95 -0.176655
11.96 -0.130395
11.97 -0.0795982
11.98 -0.0234875
11.99 0.0379337
12 0.104879
12.01 0.177426
12.02 0.255504
12.03 0.33889
12.04 0.427204
12.05 0.519911
12.06 0.616558
12.07 0.715969
12.08 0.817101
12.09 0.918857
12.1 1.02005
12.11 1.11941
12.12 1.21565
12.13 1.30744
12.14 1.39312
12.15 1.47123
12.16 1.54085
12.17 1.60085
12.18 1.65023
12.19 1.6881
12.2 1.71375
12.21 1.72661
12.22 1.72615
12.23 1.71116
12.24 1.68282
12.25 1.64134
12.26 1.58712
12.27 1.52075
12.28 1.44294
12.29 1.3546
12.3 1.25671
12.31 1.14988
12.32 1.03583
12.33 0.916036
12.34 0.791788
12.35 0.664381
12.36 0.535092
12.37 0.405155
12.38 0.275737
12.39 0.14802
12.4 0.0231611
12.41 -0.0981027
12.42 -0.215053
12.43 -0.327103
12.44 -0.433803
12.45 -0.534835
12.46 -0.630015
12.47 -0.719281
12.48 -0.802138
12.49 -0.87934
12.5 -0.951151
12.51 -1.01791
12.52 -1.08001
12.53 -1.13787
12.54 -1.19194
12.55 -1.24267
12.56 -1.29034
12.57 -1.33547
12.58 -1.37852
12.59 -1.41979
12.6 -1.45951
12.61 -1.49785
12.62 -1.53489
12.63 -1.57067
12.64 -1.60509
12.65 -1.63795
12.66 -1.66915
12.67 -1.69846
12.68 -1.72557
12.69 -1.75019
12.7 -1.77199
12.71 -1.79062
12.72 -1.80576
12.73 -1.81676
12.74 -1.82361
12.75 -1.82612
12.76 -1.82413
12.77 -1.81752
12.78 -1.80626
12.79 -1.79036
12.8 -1.76992
12.81 -1.74487
12.82 -1.71552
12.83 -1.68234
12.84 -1.64569
12.85 -1.60594
12.86 -1.56352
12.87 -1.51886
12.88 -1.47241
12.89 -1.42459
12.9 -1.37582
12.91 -1.32658
12.92 -1.27723
12.93 -1.22807
12.94 -1.17934
12.95 -1.13124
12.96 -1.08388
12.97 -1.03731
12.98 -0.991566
12.99 -0.9465
13 -0.901939
13.01 -0.857667
13.02 -0.813429
13.03 -0.768929
13.04 -0.723852
13.05 -0.67787
13.06 -0.630594
13.07 -0.581655
13.08 -0.530853
13.09 -0.477965
13.1 -0.422826
13.11 -0.365341
13.12 -0.305497
13.13 -0.24337
13.14 -0.179121
13.15 -0.112899
13.16 -0.0452924
13.17 0.0231993
13.18 0.0919789
13.19 0.160357
13.2 0.227561
13.21 0.292744
13.22 0.355
13.23 0.413056
13.24 0.465952
13.25 0.512817
13.26 0.552671
13.27 0.584565
13.28 0.607602
13.29 0.620958
13.3 0.623898
13.31 0.615452
13.32 0.59466
13.33 0.561943
13.34 0.517146
13.35 0.46028
13.36 0.39154
13.37 0.311304
13.38 0.220136
13.39 0.11879
13.4 0.00746612
13.41 -0.111812
13.42 -0.237671
13.43 -0.368643
13.44 -0.503124
13.45 -0.639395
13.46 -0.775646
13.47 -0.909999
13.48 -1.04021
13.49 -1.16416
13.5 -1.2801
13.51 -1.38617
13.52 -1.48059
13.53 -1.56169
13.54 -1.62793
13.55 -1.67795
13.56 -1.71019
13.57 -1.72258
13.58 -1.71578
13.59 -1.68937
13.6 -1.64321
13.61 -1.57741
13.62 -1.49237
13.63 -1.38878
13.64 -1.26759
13.65 -1.12884
13.66 -0.975221
13.67 -0.808775
13.68 -0.631469
13.69 -0.445455
