# xPDFsuite Configuration #
[PDF]
wavelength = 0.71
dataformat = Qnm
inputfile = H-Zr_2-1_PP.chi
backgroundfile = sub_kapton_bkgd_1mmOD_tseries_None_3edc58_20160821.chi
mode = xray
bgscale = 0.9998
composition = Zr0.34 O1.02 P0.34 C2.04 H1.36 P0.34 O1.02 O3 P O H O0.64 H0.64 H2.9 O1.45
outputtype = gr
qmaxinst = 25.0
qmin = 0.78058
qmax = 17.98
rmax = 100.0
rmin = 0.0
rstep = 0.01
rpoly = 0.9

#### start data
#S 1
#L r($\AA$)  G($\AA^{-2}$)
0 0
0.01 -0.0186009
0.02 -0.0364908
0.03 -0.0530412
0.04 -0.0676688
0.05 -0.0798549
0.06 -0.0891625
0.07 -0.095251
0.08 -0.097888
0.09 -0.0967405
0.1 -0.0919222
0.11 -0.0837162
0.12 -0.0723954
0.13 -0.0583413
0.14 -0.0420331
0.15 -0.0240324
0.16 -0.00496628
0.17 0.0144841
0.18 0.0335286
0.19 0.0514525
0.2 0.0675895
0.21 0.0813231
0.22 0.0921077
0.23 0.0994875
0.24 0.103113
0.25 0.102755
0.26 0.0979642
0.27 0.0891141
0.28 0.0764547
0.29 0.060329
0.3 0.0412072
0.31 0.0196755
0.32 -0.00357894
0.33 -0.0277865
0.34 -0.0520765
0.35 -0.0754653
0.36 -0.0970728
0.37 -0.11604
0.38 -0.131555
0.39 -0.142878
0.4 -0.149362
0.41 -0.150481
0.42 -0.145749
0.43 -0.134515
0.44 -0.117212
0.45 -0.0939659
0.46 -0.065073
0.47 -0.0309955
0.48 0.00764733
0.49 0.0500916
0.5 0.0954461
0.51 0.142774
0.52 0.19077
0.53 0.238253
0.54 0.284057
0.55 0.327028
0.56 0.36605
0.57 0.400078
0.58 0.428161
0.59 0.449169
0.6 0.462233
0.61 0.467259
0.62 0.463947
0.63 0.452188
0.64 0.432063
0.65 0.403849
0.66 0.368005
0.67 0.325141
0.68 0.275605
0.69 0.220996
0.7 0.162391
0.71 0.100953
0.72 0.0378962
0.73 -0.0255399
0.74 -0.088122
0.75 -0.148654
0.76 -0.205729
0.77 -0.258322
0.78 -0.305654
0.79 -0.346987
0.8 -0.38175
0.81 -0.409544
0.82 -0.430155
0.83 -0.443554
0.84 -0.449698
0.85 -0.44873
0.86 -0.441655
0.87 -0.429153
0.88 -0.412031
0.89 -0.391195
0.9 -0.367626
0.91 -0.342355
0.92 -0.316431
0.93 -0.291021
0.94 -0.267171
0.95 -0.245796
0.96 -0.227723
0.97 -0.21366
0.98 -0.204186
0.99 -0.199733
1 -0.200577
1.01 -0.207129
1.02 -0.219244
1.03 -0.236456
1.04 -0.258381
1.05 -0.2845
1.06 -0.314176
1.07 -0.346674
1.08 -0.381181
1.09 -0.416832
1.1 -0.452645
1.11 -0.487639
1.12 -0.520934
1.13 -0.551697
1.14 -0.579159
1.15 -0.602634
1.16 -0.621534
1.17 -0.635381
1.18 -0.64336
1.19 -0.645577
1.2 -0.642037
1.21 -0.632774
1.22 -0.617936
1.23 -0.597775
1.24 -0.57263
1.25 -0.542922
1.26 -0.508972
1.27 -0.471348
1.28 -0.430811
1.29 -0.387919
1.3 -0.343219
1.31 -0.297233
1.32 -0.250444
1.33 -0.203289
1.34 -0.156153
1.35 -0.109411
1.36 -0.0633009
1.37 -0.0180099
1.38 0.0263292
1.39 0.0696301
1.4 0.111843
1.41 0.152944
1.42 0.192919
1.43 0.231675
1.44 0.269224
1.45 0.30553
1.46 0.340481
1.47 0.373912
1.48 0.405594
1.49 0.435233
1.5 0.462462
1.51 0.48673
1.52 0.50738
1.53 0.524025
1.54 0.536057
1.55 0.542845
1.56 0.54375
1.57 0.538148
1.58 0.525452
1.59 0.505136
1.6 0.475961
1.61 0.438349
1.62 0.392149
1.63 0.337356
1.64 0.274145
1.65 0.202879
1.66 0.124122
1.67 0.0386437
1.68 -0.0528525
1.69 -0.148894
1.7 -0.247867
1.71 -0.3482
1.72 -0.448176
1.73 -0.545966
1.74 -0.639657
1.75 -0.727292
1.76 -0.806667
1.77 -0.875165
1.78 -0.931569
1.79 -0.974198
1.8 -1.00155
1.81 -1.01232
1.82 -1.0055
1.83 -0.980318
1.84 -0.936353
1.85 -0.871918
1.86 -0.788727
1.87 -0.687689
1.88 -0.569848
1.89 -0.436589
1.9 -0.289625
1.91 -0.130966
1.92 0.0371109
1.93 0.212303
1.94 0.391539
1.95 0.571666
1.96 0.749776
1.97 0.922956
1.98 1.08834
1.99 1.24317
2 1.38484
2.01 1.51073
2.02 1.6173
2.03 1.70413
2.04 1.76982
2.05 1.81337
2.06 1.83415
2.07 1.83197
2.08 1.80703
2.09 1.75993
2.1 1.6902
2.11 1.60051
2.12 1.4931
2.13 1.37003
2.14 1.23361
2.15 1.08633
2.16 0.930842
2.17 0.769859
2.18 0.606137
2.19 0.442726
2.2 0.28237
2.21 0.127528
2.22 -0.0195345
2.23 -0.156791
2.24 -0.282485
2.25 -0.395158
2.26 -0.493624
2.27 -0.575689
2.28 -0.642305
2.29 -0.693421
2.3 -0.729309
2.31 -0.750541
2.32 -0.757965
2.33 -0.752675
2.34 -0.735972
2.35 -0.708795
2.36 -0.673254
2.37 -0.631355
2.38 -0.584816
2.39 -0.535341
2.4 -0.484574
2.41 -0.434066
2.42 -0.385238
2.43 -0.339474
2.44 -0.298118
2.45 -0.261793
2.46 -0.231122
2.47 -0.206511
2.48 -0.188152
2.49 -0.176028
2.5 -0.169932
2.51 -0.16948
2.52 -0.174532
2.53 -0.183925
2.54 -0.196843
2.55 -0.212439
2.56 -0.229839
2.57 -0.248165
2.58 -0.266568
2.59 -0.28425
2.6 -0.300383
2.61 -0.3143
2.62 -0.325591
2.63 -0.333911
2.64 -0.339051
2.65 -0.340939
2.66 -0.33964
2.67 -0.335345
2.68 -0.328324
2.69 -0.318909
2.7 -0.307822
2.71 -0.295643
2.72 -0.282989
2.73 -0.270497
2.74 -0.258798
2.75 -0.248501
2.76 -0.240169
2.77 -0.234531
2.78 -0.231889
2.79 -0.232511
2.8 -0.236611
2.81 -0.244302
2.82 -0.255593
2.83 -0.270396
2.84 -0.288529
2.85 -0.309848
2.86 -0.333997
2.87 -0.360418
2.88 -0.388684
2.89 -0.418349
2.9 -0.448973
2.91 -0.480135
2.92 -0.511451
2.93 -0.542583
2.94 -0.573204
2.95 -0.603155
2.96 -0.632337
2.97 -0.660732
2.98 -0.688398
2.99 -0.715471
3 -0.742147
3.01 -0.768678
3.02 -0.795381
3.03 -0.822588
3.04 -0.850593
3.05 -0.879669
3.06 -0.910036
3.07 -0.941847
3.08 -0.975162
3.09 -1.00993
3.1 -1.04603
3.11 -1.08311
3.12 -1.12062
3.13 -1.15794
3.14 -1.19427
3.15 -1.22872
3.16 -1.26025
3.17 -1.28771
3.18 -1.30988
3.19 -1.32474
3.2 -1.33144
3.21 -1.32872
3.22 -1.3153
3.23 -1.29001
3.24 -1.2518
3.25 -1.19976
3.26 -1.1332
3.27 -1.05074
3.28 -0.952433
3.29 -0.838972
3.3 -0.710745
3.31 -0.568445
3.32 -0.413069
3.33 -0.245915
3.34 -0.0685706
3.35 0.117245
3.36 0.309484
3.37 0.505188
3.38 0.701828
3.39 0.896748
3.4 1.08722
3.41 1.27049
3.42 1.44383
3.43 1.6046
3.44 1.74883
3.45 1.87508
3.46 1.98151
3.47 2.06639
3.48 2.1283
3.49 2.16619
3.5 2.17939
3.51 2.16761
3.52 2.12982
3.53 2.06668
3.54 1.98041
3.55 1.87244
3.56 1.74452
3.57 1.59873
3.58 1.43743
3.59 1.26321
3.6 1.07876
3.61 0.886779
3.62 0.69107
3.63 0.494622
3.64 0.300371
3.65 0.111145
3.66 -0.0703894
3.67 -0.24177
3.68 -0.400784
3.69 -0.544339
3.7 -0.67142
3.71 -0.781174
3.72 -0.872765
3.73 -0.945717
3.74 -0.99991
3.75 -1.03557
3.76 -1.05324
3.77 -1.0532
3.78 -1.03639
3.79 -1.00525
3.8 -0.961375
3.81 -0.906528
3.82 -0.842564
3.83 -0.771394
3.84 -0.694941
3.85 -0.615094
3.86 -0.533693
3.87 -0.452707
3.88 -0.373658
3.89 -0.297897
3.9 -0.22657
3.91 -0.160611
3.92 -0.100732
3.93 -0.0474128
3.94 -0.00134281
3.95 0.0376642
3.96 0.0700494
3.97 0.0962044
3.98 0.11668
3.99 0.132158
4 0.143426
4.01 0.151348
4.02 0.156793
4.03 0.160729
4.04 0.164218
4.05 0.168119
4.06 0.173221
4.07 0.180222
4.08 0.189711
4.09 0.202162
4.1 0.217916
4.11 0.237498
4.12 0.260687
4.13 0.287367
4.14 0.317332
4.15 0.350264
4.16 0.385751
4.17 0.423301
4.18 0.462358
4.19 0.50234
4.2 0.542536
4.21 0.582287
4.22 0.620986
4.23 0.65806
4.24 0.692987
4.25 0.725303
4.26 0.754616
4.27 0.780551
4.28 0.802636
4.29 0.821008
4.3 0.835613
4.31 0.846476
4.32 0.853685
4.33 0.85739
4.34 0.857784
4.35 0.855101
4.36 0.849393
4.37 0.841118
4.38 0.830586
4.39 0.81804
4.4 0.803694
4.41 0.787726
4.42 0.770275
4.43 0.751431
4.44 0.731179
4.45 0.709489
4.46 0.686371
4.47 0.661723
4.48 0.635409
4.49 0.60727
4.5 0.577132
4.51 0.544819
4.52 0.510145
4.53 0.472742
4.54 0.432716
4.55 0.390002
4.56 0.344591
4.57 0.29653
4.58 0.245936
4.59 0.19299
4.6 0.137944
4.61 0.0810236
4.62 0.022729
4.63 -0.03644
4.64 -0.09599
4.65 -0.155395
4.66 -0.214109
4.67 -0.27158
4.68 -0.327268
4.69 -0.380565
4.7 -0.430851
4.71 -0.477872
4.72 -0.521291
4.73 -0.560851
4.74 -0.596386
4.75 -0.627825
4.76 -0.655198
4.77 -0.678633
4.78 -0.698042
4.79 -0.714112
4.8 -0.727273
4.81 -0.738008
4.82 -0.746848
4.83 -0.75436
4.84 -0.761122
4.85 -0.767708
4.86 -0.774713
4.87 -0.782679
4.88 -0.791994
4.89 -0.802971
4.9 -0.815813
4.91 -0.830595
4.92 -0.847259
4.93 -0.865599
4.94 -0.885282
4.95 -0.905778
4.96 -0.926313
4.97 -0.946077
4.98 -0.964139
4.99 -0.979469
5 -0.990956
5.01 -0.997437
5.02 -0.997716
5.03 -0.989897
5.04 -0.973225
5.05 -0.94673
5.06 -0.909438
5.07 -0.860509
5.08 -0.799262
5.09 -0.725201
5.1 -0.638035
5.11 -0.537094
5.12 -0.422566
5.13 -0.295588
5.14 -0.156889
5.15 -0.00744716
5.16 0.151525
5.17 0.31859
5.18 0.492108
5.19 0.670287
5.2 0.851138
5.21 1.03218
5.22 1.21123
5.23 1.38607
5.24 1.55449
5.25 1.71432
5.26 1.86348
5.27 2
5.28 2.12094
5.29 2.22523
5.3 2.31191
5.31 2.3799
5.32 2.4284
5.33 2.45689
5.34 2.46516
5.35 2.45328
5.36 2.42094
5.37 2.36844
5.38 2.29797
5.39 2.21076
5.4 2.10826
5.41 1.99212
5.42 1.86415
5.43 1.72626
5.44 1.58048
5.45 1.42851
5.46 1.27317
5.47 1.11648
5.48 0.960419
5.49 0.806868
5.5 0.657568
5.51 0.514107
5.52 0.377898
5.53 0.250742
5.54 0.13351
5.55 0.0266408
5.56 -0.0693443
5.57 -0.154142
5.58 -0.227658
5.59 -0.289999
5.6 -0.341458
5.61 -0.38224
5.62 -0.412603
5.63 -0.434035
5.64 -0.447393
5.65 -0.453605
5.66 -0.453645
5.67 -0.44851
5.68 -0.439198
5.69 -0.426685
5.7 -0.411785
5.71 -0.395618
5.72 -0.378988
5.73 -0.362594
5.74 -0.347039
5.75 -0.332826
5.76 -0.320358
5.77 -0.309936
5.78 -0.301884
5.79 -0.296302
5.8 -0.293097
5.81 -0.292204
5.82 -0.293496
5.83 -0.296797
5.84 -0.301892
5.85 -0.308537
5.86 -0.316491
5.87 -0.325529
5.88 -0.335294
5.89 -0.345545
5.9 -0.356061
5.91 -0.366649
5.92 -0.377144
5.93 -0.387412
5.94 -0.397352
5.95 -0.406855
5.96 -0.415899
5.97 -0.424473
5.98 -0.432574
5.99 -0.440213
6 -0.447403
6.01 -0.454157
6.02 -0.460483
6.03 -0.466356
6.04 -0.471744
6.05 -0.476623
6.06 -0.480923
6.07 -0.484549
6.08 -0.487381
6.09 -0.489277
6.1 -0.490075
6.11 -0.489587
6.12 -0.487477
6.13 -0.483665
6.14 -0.477956
6.15 -0.470165
6.16 -0.460122
6.17 -0.447681
6.18 -0.432728
6.19 -0.415185
6.2 -0.394845
6.21 -0.371823
6.22 -0.346277
6.23 -0.318337
6.24 -0.28819
6.25 -0.256076
6.26 -0.222285
6.27 -0.187157
6.28 -0.151057
6.29 -0.114438
6.3 -0.0778086
6.31 -0.0416403
6.32 -0.00641073
6.33 0.0274034
6.34 0.0593362
6.35 0.088943
6.36 0.115809
6.37 0.139245
6.38 0.159173
6.39 0.175351
6.4 0.187582
6.41 0.195736
6.42 0.199752
6.43 0.199639
6.44 0.195475
6.45 0.187203
6.46 0.175128
6.47 0.159694
6.48 0.141241
6.49 0.120153
6.5 0.0968523
6.51 0.0717893
6.52 0.0454354
6.53 0.0182664
6.54 -0.00920005
6.55 -0.0364352
6.56 -0.0629845
6.57 -0.0884187
6.58 -0.112341
6.59 -0.134394
6.6 -0.15426
6.61 -0.171671
6.62 -0.186175
6.63 -0.197769
6.64 -0.206386
6.65 -0.211966
6.66 -0.214495
6.67 -0.214003
6.68 -0.210561
6.69 -0.204272
6.7 -0.195159
6.71 -0.183392
6.72 -0.169296
6.73 -0.153073
6.74 -0.134937
6.75 -0.115106
6.76 -0.0938025
6.77 -0.0712475
6.78 -0.0476519
6.79 -0.0231883
6.8 0.00185052
6.81 0.0272648
6.82 0.0528613
6.83 0.0784527
6.84 0.103857
6.85 0.128896
6.86 0.153394
6.87 0.177115
6.88 0.199897
6.89 0.221584
6.9 0.241999
6.91 0.260961
6.92 0.278288
6.93 0.293799
6.94 0.307308
6.95 0.318552
6.96 0.327268
6.97 0.333425
6.98 0.336863
6.99 0.33744
7 0.33503
7.01 0.32953
7.02 0.320865
7.03 0.308986
7.04 0.293575
7.05 0.274968
7.06 0.25324
7.07 0.228501
7.08 0.200904
7.09 0.170643
7.1 0.13795
7.11 0.103097
7.12 0.0662992
7.13 0.0279806
7.14 -0.0114248
7.15 -0.05153
7.16 -0.0919356
7.17 -0.132236
7.18 -0.172026
7.19 -0.210911
7.2 -0.248466
7.21 -0.28422
7.22 -0.317947
7.23 -0.349363
7.24 -0.378222
7.25 -0.404329
7.26 -0.427533
7.27 -0.447739
7.28 -0.464901
7.29 -0.478771
7.3 -0.489646
7.31 -0.497678
7.32 -0.503027
7.33 -0.505892
7.34 -0.506506
7.35 -0.505129
7.36 -0.502039
7.37 -0.497474
7.38 -0.491775
7.39 -0.4853
7.4 -0.478332
7.41 -0.471137
7.42 -0.463955
7.43 -0.457
7.44 -0.450453
7.45 -0.444467
7.46 -0.4392
7.47 -0.434659
7.48 -0.430865
7.49 -0.427796
7.5 -0.425398
7.51 -0.423585
7.52 -0.422246
7.53 -0.421245
7.54 -0.420436
7.55 -0.419633
7.56 -0.418672
7.57 -0.417396
7.58 -0.415662
7.59 -0.413344
7.6 -0.410338
7.61 -0.406569
7.62 -0.401961
7.63 -0.396492
7.64 -0.390244
7.65 -0.383288
7.66 -0.375731
7.67 -0.367714
7.68 -0.35941
7.69 -0.351016
7.7 -0.342755
7.71 -0.334922
7.72 -0.327748
7.73 -0.321482
7.74 -0.316367
7.75 -0.312633
7.76 -0.31049
7.77 -0.310118
7.78 -0.311668
7.79 -0.315384
7.8 -0.321266
7.81 -0.329255
7.82 -0.339306
7.83 -0.35132
7.84 -0.365148
7.85 -0.380588
7.86 -0.397387
7.87 -0.415269
7.88 -0.433876
7.89 -0.452755
7.9 -0.471494
7.91 -0.489658
7.92 -0.5068
7.93 -0.522465
7.94 -0.536201
7.95 -0.547567
7.96 -0.555852
7.97 -0.560865
7.98 -0.56227
7.99 -0.559755
8 -0.553054
8.01 -0.541956
8.02 -0.526304
8.03 -0.506
8.04 -0.480754
8.05 -0.450662
8.06 -0.416021
8.07 -0.376993
8.08 -0.333798
8.09 -0.286707
8.1 -0.236046
8.11 -0.182183
8.12 -0.125486
8.13 -0.066313
8.14 -0.00535755
8.15 0.0568788
8.16 0.119879
8.17 0.183117
8.18 0.246065
8.19 0.308197
8.2 0.368997
8.21 0.427777
8.22 0.484129
8.23 0.537632
8.24 0.587865
8.25 0.634437
8.26 0.676997
8.27 0.71523
8.28 0.748865
8.29 0.777451
8.3 0.800744
8.31 0.818873
8.32 0.831757
8.33 0.839363
8.34 0.841704
8.35 0.838842
8.36 0.830882
8.37 0.817936
8.38 0.799843
8.39 0.777283
8.4 0.750539
8.41 0.719932
8.42 0.685813
8.43 0.648568
8.44 0.608603
8.45 0.56635
8.46 0.522162
8.47 0.476627
8.48 0.430265
8.49 0.383544
8.5 0.336928
8.51 0.290873
8.52 0.245816
8.53 0.202174
8.54 0.160408
8.55 0.120976
8.56 0.0840706
8.57 0.0499567
8.58 0.0188531
8.59 -0.00907142
8.6 -0.0337004
8.61 -0.0549711
8.62 -0.0728752
8.63 -0.0871533
8.64 -0.0982286
8.65 -0.106267
8.66 -0.111475
8.67 -0.114099
8.68 -0.114422
8.69 -0.112757
8.7 -0.109441
8.71 -0.10477
8.72 -0.0991733
8.73 -0.0930569
8.74 -0.0867671
8.75 -0.0806319
8.76 -0.0749534
8.77 -0.0699999
8.78 -0.066
8.79 -0.0631667
8.8 -0.0617041
8.81 -0.0615926
8.82 -0.0628402
8.83 -0.0653976
8.84 -0.0691585
8.85 -0.0739613
8.86 -0.0795926
8.87 -0.0857913
8.88 -0.0922483
8.89 -0.0985709
8.9 -0.104387
8.91 -0.109309
8.92 -0.112945
8.93 -0.114904
8.94 -0.114809
8.95 -0.112302
8.96 -0.106911
8.97 -0.0983222
8.98 -0.0864449
8.99 -0.0711121
9 -0.05222
9.01 -0.0297317
9.02 -0.00368056
9.03 0.0258282
9.04 0.0586572
9.05 0.0947392
9.06 0.133474
9.07 0.174469
9.08 0.21728
9.09 0.261414
9.1 0.306337
9.11 0.351488
9.12 0.396285
9.13 0.440024
9.14 0.482106
9.15 0.521981
9.16 0.559105
9.17 0.592967
9.18 0.623102
9.19 0.649097
9.2 0.670599
9.21 0.687129
9.22 0.698353
9.23 0.704426
9.24 0.705298
9.25 0.700991
9.26 0.691603
9.27 0.677302
9.28 0.658318
9.29 0.634933
9.3 0.607162
9.31 0.575811
9.32 0.541315
9.33 0.504136
9.34 0.46475
9.35 0.423645
9.36 0.381305
9.37 0.338207
9.38 0.294818
9.39 0.251628
9.4 0.20904
9.41 0.167409
9.42 0.127052
9.43 0.0882385
9.44 0.0511917
9.45 0.0160873
9.46 -0.0168862
9.47 -0.0475551
9.48 -0.0760343
9.49 -0.102335
9.5 -0.126505
9.51 -0.148622
9.52 -0.168791
9.53 -0.187137
9.54 -0.203801
9.55 -0.218813
9.56 -0.232467
9.57 -0.244931
9.58 -0.256355
9.59 -0.26688
9.6 -0.276636
9.61 -0.285735
9.62 -0.294277
9.63 -0.302316
9.64 -0.309924
9.65 -0.317158
9.66 -0.324037
9.67 -0.330567
9.68 -0.336736
9.69 -0.342522
9.7 -0.347892
9.71 -0.352797
9.72 -0.357157
9.73 -0.360963
9.74 -0.36417
9.75 -0.366736
9.76 -0.368624
9.77 -0.369806
9.78 -0.370261
9.79 -0.369976
9.8 -0.368893
9.81 -0.367065
9.82 -0.364525
9.83 -0.361301
9.84 -0.357428
9.85 -0.352946
9.86 -0.347901
9.87 -0.342343
9.88 -0.336305
9.89 -0.329841
9.9 -0.323024
9.91 -0.315901
9.92 -0.308515
9.93 -0.300905
9.94 -0.293105
9.95 -0.285145
9.96 -0.277046
9.97 -0.268822
9.98 -0.2605
9.99 -0.252093
10 -0.243614
10.01 -0.235074
10.02 -0.226487
10.03 -0.217871
10.04 -0.209245
10.05 -0.20064
10.06 -0.19209
10.07 -0.183635
10.08 -0.175324
10.09 -0.16721
10.1 -0.159354
10.11 -0.151823
10.12 -0.144688
10.13 -0.138039
10.14 -0.131976
10.15 -0.126539
10.16 -0.121795
10.17 -0.117803
10.18 -0.114609
10.19 -0.112249
10.2 -0.110741
10.21 -0.110085
10.22 -0.110335
10.23 -0.111365
10.24 -0.1131
10.25 -0.115443
10.26 -0.118272
10.27 -0.121441
10.28 -0.124783
10.29 -0.128107
10.3 -0.131182
10.31 -0.133759
10.32 -0.135616
10.33 -0.13651
10.34 -0.136201
10.35 -0.134453
10.36 -0.131039
10.37 -0.125748
10.38 -0.11834
10.39 -0.108519
10.4 -0.0963149
10.41 -0.0816372
10.42 -0.064436
10.43 -0.0447036
10.44 -0.0224774
10.45 0.00215952
10.46 0.0290774
10.47 0.0582567
10.48 0.0893036
10.49 0.121918
10.5 0.155792
10.51 0.190583
10.52 0.225921
10.53 0.261414
10.54 0.296654
10.55 0.331173
10.56 0.364498
10.57 0.396253
10.58 0.426043
10.59 0.453495
10.6 0.478265
10.61 0.500041
10.62 0.518552
10.63 0.53353
10.64 0.544515
10.65 0.551695
10.66 0.555009
10.67 0.554453
10.68 0.55008
10.69 0.541992
10.7 0.530346
10.71 0.515344
10.72 0.497032
10.73 0.475883
10.74 0.452301
10.75 0.426641
10.76 0.399279
10.77 0.370608
10.78 0.341024
10.79 0.310928
10.8 0.280722
10.81 0.25084
10.82 0.221646
10.83 0.193476
10.84 0.166638
10.85 0.141409
10.86 0.11803
10.87 0.0967076
10.88 0.0776113
10.89 0.0610975
10.9 0.047032
10.91 0.0354562
10.92 0.0263754
10.93 0.0197602
10.94 0.0155498
10.95 0.0136542
10.96 0.013958
10.97 0.0164422
10.98 0.0208722
10.99 0.0270044
11 0.0346544
11.01 0.043631
11.02 0.0537395
11.03 0.0647839
11.04 0.0765705
11.05 0.088919
11.06 0.101641
11.07 0.114528
11.08 0.127413
11.09 0.140143
11.1 0.152574
11.11 0.164574
11.12 0.176019
11.13 0.186798
11.14 0.196734
11.15 0.205791
11.16 0.213893
11.17 0.22097
11.18 0.226958
11.19 0.231801
11.2 0.235449
11.21 0.237862
11.22 0.238937
11.23 0.238652
11.24 0.237047
11.25 0.234109
11.26 0.229835
11.27 0.22423
11.28 0.217307
11.29 0.209089
11.3 0.199589
11.31 0.188777
11.32 0.176809
11.33 0.163752
11.34 0.149682
11.35 0.134685
11.36 0.118859
11.37 0.102309
11.38 0.0851478
11.39 0.0674694
11.4 0.0494414
11.41 0.0312046
11.42 0.0128924
11.43 -0.00536169
11.44 -0.0234256
11.45 -0.041171
11.46 -0.058475
11.47 -0.0751944
11.48 -0.0912022
11.49 -0.106437
11.5 -0.12082
11.51 -0.134283
11.52 -0.146777
11.53 -0.158265
11.54 -0.168726
11.55 -0.178149
11.56 -0.186461
11.57 -0.193784
11.58 -0.200159
11.59 -0.205641
11.6 -0.210292
11.61 -0.214187
11.62 -0.217406
11.63 -0.220034
11.64 -0.222131
11.65 -0.223816
11.66 -0.225191
11.67 -0.226339
11.68 -0.22734
11.69 -0.228266
11.7 -0.229181
11.71 -0.23014
11.72 -0.231191
11.73 -0.232377
11.74 -0.23371
11.75 -0.235202
11.76 -0.236852
11.77 -0.238649
11.78 -0.240573
11.79 -0.242596
11.8 -0.244685
11.81 -0.246795
11.82 -0.248877
11.83 -0.250881
11.84 -0.252758
11.85 -0.254457
11.86 -0.255931
11.87 -0.257134
11.88 -0.258021
11.89 -0.258532
11.9 -0.258634
11.91 -0.258314
11.92 -0.257548
11.93 -0.256318
11.94 -0.25461
11.95 -0.252414
11.96 -0.249726
11.97 -0.246532
11.98 -0.242807
11.99 -0.23859
12 -0.233883
12.01 -0.228691
12.02 -0.223015
12.03 -0.216857
12.04 -0.210217
12.05 -0.203093
12.06 -0.19544
12.07 -0.187284
12.08 -0.178625
12.09 -0.169453
12.1 -0.15976
12.11 -0.149535
12.12 -0.138771
12.13 -0.127461
12.14 -0.115577
12.15 -0.103119
12.16 -0.0901219
12.17 -0.0766003
12.18 -0.062576
12.19 -0.0480791
12.2 -0.0331483
12.21 -0.0178319
12.22 -0.00218477
12.23 0.0137375
12.24 0.0298291
12.25 0.0460025
12.26 0.0621626
12.27 0.0782074
12.28 0.0940295
12.29 0.109517
12.3 0.124556
12.31 0.138982
12.32 0.152696
12.33 0.165602
12.34 0.177595
12.35 0.188578
12.36 0.198461
12.37 0.207165
12.38 0.214624
12.39 0.220736
12.4 0.225425
12.41 0.228748
12.42 0.2307
12.43 0.231289
12.44 0.230539
12.45 0.228489
12.46 0.225191
12.47 0.220709
12.48 0.21502
12.49 0.208326
12.5 0.200722
12.51 0.192308
12.52 0.183189
12.53 0.173472
12.54 0.163264
12.55 0.152667
12.56 0.141773
12.57 0.130694
12.58 0.119527
12.59 0.108349
12.6 0.0972297
12.61 0.0862282
12.62 0.0753926
12.63 0.0647607
12.64 0.0543658
12.65 0.0442365
12.66 0.0343606
12.67 0.0247341
12.68 0.0153446
12.69 0.00617351
12.7 -0.00280362
12.71 -0.0116153
12.72 -0.0202927
12.73 -0.028863
12.74 -0.0373695
12.75 -0.0458446
12.76 -0.0543169
12.77 -0.0628115
12.78 -0.0713491
12.79 -0.0799451
12.8 -0.0886093
12.81 -0.0973488
12.82 -0.10616
12.83 -0.115028
12.84 -0.123938
12.85 -0.132868
12.86 -0.141791
12.87 -0.150676
12.88 -0.159487
12.89 -0.168183
12.9 -0.176711
12.91 -0.185038
12.92 -0.193121
12.93 -0.200918
12.94 -0.208388
12.95 -0.215492
12.96 -0.222192
12.97 -0.228453
12.98 -0.234206
12.99 -0.239446
13 -0.244157
13.01 -0.248317
13.02 -0.251908
13.03 -0.254914
13.04 -0.25732
13.05 -0.259117
13.06 -0.260268
13.07 -0.260756
13.08 -0.260608
13.09 -0.25982
13.1 -0.258387
13.11 -0.256303
13.12 -0.253565
13.13 -0.250169
13.14 -0.246109
13.15 -0.241323
13.16 -0.23587
13.17 -0.22975
13.18 -0.222963
13.19 -0.215513
13.2 -0.207405
13.21 -0.198649
13.22 -0.189258
13.23 -0.179208
13.24 -0.168548
13.25 -0.157326
13.26 -0.145576
13.27 -0.13334
13.28 -0.120665
