# xPDFsuite Configuration #
[PDF]
wavelength = 0.1
dataformat = QA
inputfile = x0_20171023-035714__198.0K_001.chi
backgroundfile = kapton_1mmOD_20171019-202628_0ea754_001_fit2d.chi
mode = xray
bgscale = 1.0
composition = SrFe2As2
outputtype = gr
qmaxinst = 25.0
qmin = 0.4
qmax = 25.0
rmax = 100.0
rmin = 0.0
rstep = 0.01
rpoly = 0.7

[Misc]
inputdir = /home/ben/scatteringdata/2017_03_NOMAD-C4/xray/OctoberBeamtime/x0/x0_8/chi_fit2d
savedir = /home/ben/scatteringdata/2017_03_NOMAD-C4/xray/OctoberBeamtime/x0/x0_8/pdf_fit2d
backgroundfilefull = /home/ben/scatteringdata/2017_03_NOMAD-C4/xray/OctoberBeamtime/kapton_1mmOD_20171019-202628_0ea754_001_fit2d.chi

#### start data
#S 1
#L r($\AA$)  G($\AA^{-2}$)
0 0
0.01 0.000300827
0.02 0.000581634
0.03 0.000825046
0.04 0.00101587
0.05 0.00114184
0.06 0.00119405
0.07 0.00116711
0.08 0.0010589
0.09 0.000870107
0.1 0.000603478
0.11 0.000258413
0.12 -0.000156704
0.13 -0.000636745
0.14 -0.00117842
0.15 -0.0017789
0.16 -0.00243499
0.17 -0.0031418
0.18 -0.00389066
0.19 -0.00466666
0.2 -0.00544558
0.21 -0.00618634
0.22 -0.00682932
0.23 -0.00730021
0.24 -0.00750199
0.25 -0.00731504
0.26 -0.00659734
0.27 -0.00518616
0.28 -0.00290154
0.29 0.000448474
0.3 0.00506067
0.31 0.0111834
0.32 0.0190352
0.33 0.0286904
0.34 0.0402534
0.35 0.053776
0.36 0.0692455
0.37 0.0865753
0.38 0.105597
0.39 0.126055
0.4 0.147605
0.41 0.169817
0.42 0.192133
0.43 0.213916
0.44 0.234521
0.45 0.253264
0.46 0.269455
0.47 0.282413
0.48 0.291497
0.49 0.296132
0.5 0.295832
0.51 0.290217
0.52 0.278605
0.53 0.261374
0.54 0.238638
0.55 0.210674
0.56 0.17793
0.57 0.141004
0.58 0.10064
0.59 0.0576952
0.6 0.0131204
0.61 -0.032076
0.62 -0.0767639
0.63 -0.119867
0.64 -0.160443
0.65 -0.197637
0.66 -0.230722
0.67 -0.259127
0.68 -0.282457
0.69 -0.30051
0.7 -0.313281
0.71 -0.32096
0.72 -0.323713
0.73 -0.322261
0.74 -0.317467
0.75 -0.310156
0.76 -0.301221
0.77 -0.291587
0.78 -0.28217
0.79 -0.273836
0.8 -0.267367
0.81 -0.263425
0.82 -0.262652
0.83 -0.265458
0.84 -0.271838
0.85 -0.281754
0.86 -0.294994
0.87 -0.311187
0.88 -0.329826
0.89 -0.350297
0.9 -0.371908
0.91 -0.393925
0.92 -0.415588
0.93 -0.436081
0.94 -0.454805
0.95 -0.471233
0.96 -0.484957
0.97 -0.495708
0.98 -0.503361
0.99 -0.507937
1 -0.509595
1.01 -0.508616
1.02 -0.505383
1.03 -0.500271
1.04 -0.493977
1.05 -0.487039
1.06 -0.479977
1.07 -0.473268
1.08 -0.46732
1.09 -0.462454
1.1 -0.458886
1.11 -0.456727
1.12 -0.455975
1.13 -0.456603
1.14 -0.458318
1.15 -0.460824
1.16 -0.4638
1.17 -0.466908
1.18 -0.469816
1.19 -0.47223
1.2 -0.473913
1.21 -0.474706
1.22 -0.474544
1.23 -0.473422
1.24 -0.47153
1.25 -0.469155
1.26 -0.46664
1.27 -0.464394
1.28 -0.46287
1.29 -0.462532
1.3 -0.46383
1.31 -0.467173
1.32 -0.472894
1.33 -0.481334
1.34 -0.492634
1.35 -0.506638
1.36 -0.523171
1.37 -0.541919
1.38 -0.562448
1.39 -0.584213
1.4 -0.606587
1.41 -0.628889
1.42 -0.650418
1.43 -0.670442
1.44 -0.688184
1.45 -0.70321
1.46 -0.715107
1.47 -0.723608
1.48 -0.728604
1.49 -0.730152
1.5 -0.728474
1.51 -0.723949
1.52 -0.717092
1.53 -0.708529
1.54 -0.698962
1.55 -0.689275
1.56 -0.680226
1.57 -0.67253
1.58 -0.666827
1.59 -0.663645
1.6 -0.66338
1.61 -0.666269
1.62 -0.672389
1.63 -0.681648
1.64 -0.693974
1.65 -0.708755
1.66 -0.725431
1.67 -0.743394
1.68 -0.761993
1.69 -0.780573
1.7 -0.79851
1.71 -0.815244
1.72 -0.830316
1.73 -0.843384
1.74 -0.854121
1.75 -0.862543
1.76 -0.868824
1.77 -0.873206
1.78 -0.876041
1.79 -0.87776
1.8 -0.87884
1.81 -0.879774
1.82 -0.881029
1.83 -0.883014
1.84 -0.886103
1.85 -0.89052
1.86 -0.896272
1.87 -0.903282
1.88 -0.911343
1.89 -0.920138
1.9 -0.929261
1.91 -0.938255
1.92 -0.946649
1.93 -0.953997
1.94 -0.959885
1.95 -0.963974
1.96 -0.966264
1.97 -0.966846
1.98 -0.965992
1.99 -0.964165
2 -0.961992
2.01 -0.96024
2.02 -0.95977
2.03 -0.961478
2.04 -0.966253
2.05 -0.975162
2.06 -0.988487
2.07 -1.00647
2.08 -1.02899
2.09 -1.05552
2.1 -1.0851
2.11 -1.11627
2.12 -1.14712
2.13 -1.17526
2.14 -1.19793
2.15 -1.21117
2.16 -1.21191
2.17 -1.19684
2.18 -1.1626
2.19 -1.10609
2.2 -1.02456
2.21 -0.915827
2.22 -0.778371
2.23 -0.611482
2.24 -0.415363
2.25 -0.189748
2.26 0.0619448
2.27 0.335549
2.28 0.626643
2.29 0.929928
2.3 1.23935
2.31 1.54826
2.32 1.84963
2.33 2.13624
2.34 2.40092
2.35 2.63537
2.36 2.83256
2.37 2.98834
2.38 3.09832
2.39 3.15927
2.4 3.16929
2.41 3.12782
2.42 3.03575
2.43 2.89537
2.44 2.7103
2.45 2.48457
2.46 2.22365
2.47 1.93676
2.48 1.63144
2.49 1.31558
2.5 0.997149
2.51 0.683941
2.52 0.383323
2.53 0.10201
2.54 -0.154142
2.55 -0.380023
2.56 -0.569514
2.57 -0.722689
2.58 -0.838616
2.59 -0.917592
2.6 -0.961081
2.61 -0.971591
2.62 -0.952537
2.63 -0.908065
2.64 -0.842858
2.65 -0.761938
2.66 -0.670056
2.67 -0.573354
2.68 -0.476663
2.69 -0.384285
2.7 -0.299945
2.71 -0.226699
2.72 -0.166876
2.73 -0.12205
2.74 -0.0930528
2.75 -0.0800114
2.76 -0.0832506
2.77 -0.101038
2.78 -0.131443
2.79 -0.172618
2.8 -0.222544
2.81 -0.279152
2.82 -0.340425
2.83 -0.404488
2.84 -0.469679
2.85 -0.534605
2.86 -0.598066
2.87 -0.6592
2.88 -0.717588
2.89 -0.772982
2.9 -0.825308
2.91 -0.874596
2.92 -0.920915
2.93 -0.964298
2.94 -1.00467
2.95 -1.04181
2.96 -1.07517
2.97 -1.10384
2.98 -1.12708
2.99 -1.14369
3 -1.15228
3.01 -1.15132
3.02 -1.1392
3.03 -1.11429
3.04 -1.07509
3.05 -1.02024
3.06 -0.948489
3.07 -0.857978
3.08 -0.749709
3.09 -0.623953
3.1 -0.481503
3.11 -0.323692
3.12 -0.152379
3.13 0.0300738
3.14 0.220857
3.15 0.41678
3.16 0.614364
3.17 0.809497
3.18 0.998282
3.19 1.17704
3.2 1.34227
3.21 1.49072
3.22 1.61957
3.23 1.72643
3.24 1.80948
3.25 1.86748
3.26 1.8998
3.27 1.90499
3.28 1.88477
3.29 1.84106
3.3 1.77574
3.31 1.69112
3.32 1.58993
3.33 1.47516
3.34 1.34999
3.35 1.2177
3.36 1.08158
3.37 0.944936
3.38 0.811097
3.39 0.682788
3.4 0.562401
3.41 0.451961
3.42 0.353096
3.43 0.267017
3.44 0.194512
3.45 0.135957
3.46 0.0913336
3.47 0.0606071
3.48 0.0433135
3.49 0.037671
3.5 0.0424172
3.51 0.0561258
3.52 0.0772636
3.53 0.104246
3.54 0.135494
3.55 0.169483
3.56 0.204794
3.57 0.240146
3.58 0.274319
3.59 0.30651
3.6 0.336159
3.61 0.362969
3.62 0.386914
3.63 0.408236
3.64 0.427438
3.65 0.445258
3.66 0.462643
3.67 0.480715
3.68 0.500975
3.69 0.524709
3.7 0.553248
3.71 0.587874
3.72 0.629752
3.73 0.679866
3.74 0.738961
3.75 0.80749
3.76 0.885563
3.77 0.972916
3.78 1.06934
3.79 1.17324
3.8 1.28287
3.81 1.39626
3.82 1.51108
3.83 1.62473
3.84 1.73435
3.85 1.83695
3.86 1.92947
3.87 2.00888
3.88 2.07146
3.89 2.11442
3.9 2.13611
3.91 2.13474
3.92 2.10901
3.93 2.05819
3.94 1.98217
3.95 1.88146
3.96 1.75719
3.97 1.61112
3.98 1.44508
3.99 1.2618
4 1.06558
4.01 0.860008
4.02 0.648832
4.03 0.435869
4.04 0.224872
4.05 0.0194239
4.06 -0.17718
4.07 -0.362022
4.08 -0.532439
4.09 -0.685474
4.1 -0.820898
4.11 -0.938064
4.12 -1.03691
4.13 -1.11792
4.14 -1.18208
4.15 -1.23081
4.16 -1.26586
4.17 -1.28925
4.18 -1.30314
4.19 -1.30933
4.2 -1.31065
4.21 -1.30907
4.22 -1.30629
4.23 -1.30366
4.24 -1.30217
4.25 -1.3024
4.26 -1.3045
4.27 -1.30822
4.28 -1.31291
4.29 -1.31751
4.3 -1.3206
4.31 -1.32066
4.32 -1.31605
4.33 -1.3051
4.34 -1.28619
4.35 -1.25785
4.36 -1.2188
4.37 -1.16804
4.38 -1.10491
4.39 -1.0285
4.4 -0.939122
4.41 -0.837793
4.42 -0.725487
4.43 -0.603543
4.44 -0.473637
4.45 -0.337727
4.46 -0.198007
4.47 -0.0568381
4.48 0.0833119
4.49 0.219748
4.5 0.349613
4.51 0.470737
4.52 0.580911
4.53 0.678129
4.54 0.760632
4.55 0.826937
4.56 0.875861
4.57 0.906538
4.58 0.918421
4.59 0.911013
4.6 0.883443
4.61 0.837449
4.62 0.773771
4.63 0.693402
4.64 0.59757
4.65 0.487709
4.66 0.365431
4.67 0.232493
4.68 0.0907695
4.69 -0.0577793
4.7 -0.211365
4.71 -0.36743
4.72 -0.523956
4.73 -0.67898
4.74 -0.830622
4.75 -0.977116
4.76 -1.11683
4.77 -1.24832
4.78 -1.37029
4.79 -1.48171
4.8 -1.58095
4.81 -1.66794
4.82 -1.74255
4.83 -1.80473
4.84 -1.85461
4.85 -1.89255
4.86 -1.9191
4.87 -1.93495
4.88 -1.94091
4.89 -1.9379
4.9 -1.92651
4.91 -1.90791
4.92 -1.88325
4.93 -1.85336
4.94 -1.81892
4.95 -1.78048
4.96 -1.73844
4.97 -1.693
4.98 -1.64421
4.99 -1.59191
5 -1.53569
5.01 -1.47499
5.02 -1.40945
5.03 -1.33848
5.04 -1.26147
5.05 -1.17783
5.06 -1.08706
5.07 -0.988754
5.08 -0.882686
5.09 -0.768798
5.1 -0.647127
5.11 -0.517752
5.12 -0.381839
5.13 -0.240277
5.14 -0.094171
5.15 0.0551888
5.16 0.206353
5.17 0.357754
5.18 0.507745
5.19 0.654651
5.2 0.796809
5.21 0.931973
5.22 1.05908
5.23 1.17681
5.24 1.28402
5.25 1.37975
5.26 1.46329
5.27 1.53412
5.28 1.59195
5.29 1.63669
5.3 1.66847
5.31 1.68674
5.32 1.69262
5.33 1.68687
5.34 1.67013
5.35 1.64308
5.36 1.60643
5.37 1.5609
5.38 1.50716
5.39 1.44587
5.4 1.37764
5.41 1.30274
5.42 1.22185
5.43 1.13564
5.44 1.04453
5.45 0.948958
5.46 0.849325
5.47 0.746053
5.48 0.639581
5.49 0.530378
5.5 0.418952
5.51 0.305822
5.52 0.191637
5.53 0.0771283
5.54 -0.037016
5.55 -0.150075
5.56 -0.261309
5.57 -0.369968
5.58 -0.475307
5.59 -0.576597
5.6 -0.673137
5.61 -0.764155
5.62 -0.848704
5.63 -0.926588
5.64 -0.997317
5.65 -1.06046
5.66 -1.11567
5.67 -1.16261
5.68 -1.20107
5.69 -1.23084
5.7 -1.25178
5.71 -1.26382
5.72 -1.26621
5.73 -1.2597
5.74 -1.24441
5.75 -1.22047
5.76 -1.18813
5.77 -1.14769
5.78 -1.09954
5.79 -1.04417
5.8 -0.982161
5.81 -0.914205
5.82 -0.840815
5.83 -0.763259
5.84 -0.682638
5.85 -0.600068
5.86 -0.516744
5.87 -0.433914
5.88 -0.352864
5.89 -0.274888
5.9 -0.201262
5.91 -0.133214
5.92 -0.0722978
5.93 -0.0195067
5.94 0.024487
5.95 0.058963
5.96 0.0833789
5.97 0.0973831
5.98 0.100822
5.99 0.0937392
6 0.0763751
6.01 0.0491531
6.02 0.0123672
6.03 -0.0332344
6.04 -0.0863211
6.05 -0.145887
6.06 -0.210843
6.07 -0.280041
6.08 -0.35229
6.09 -0.426376
6.1 -0.501068
6.11 -0.575133
6.12 -0.647277
6.13 -0.716017
6.14 -0.780255
6.15 -0.838761
6.16 -0.890304
6.17 -0.933652
6.18 -0.967565
6.19 -0.990811
6.2 -1.00217
6.21 -1.00044
6.22 -0.984428
6.23 -0.951831
6.24 -0.902845
6.25 -0.836691
6.26 -0.752782
6.27 -0.650771
6.28 -0.530587
6.29 -0.392471
6.3 -0.237013
6.31 -0.0651707
6.32 0.121717
6.33 0.3227
6.34 0.534708
6.35 0.755064
6.36 0.980967
6.37 1.20938
6.38 1.4371
6.39 1.66084
6.4 1.87733
6.41 2.08337
6.42 2.27597
6.43 2.45144
6.44 2.60765
6.45 2.74327
6.46 2.85705
6.47 2.94826
6.48 3.01678
6.49 3.06307
6.5 3.08813
6.51 3.0935
6.52 3.08119
6.53 3.0531
6.54 3.01214
6.55 2.96184
6.56 2.90513
6.57 2.84486
6.58 2.78368
6.59 2.72399
6.6 2.6678
6.61 2.61665
6.62 2.57161
6.63 2.53332
6.64 2.50194
6.65 2.47638
6.66 2.45545
6.67 2.43751
6.68 2.42058
6.69 2.4024
6.7 2.38056
6.71 2.35258
6.72 2.31603
6.73 2.26859
6.74 2.20719
6.75 2.13114
6.76 2.0393
6.77 1.93105
6.78 1.8063
6.79 1.66547
6.8 1.50952
6.81 1.33994
6.82 1.15863
6.83 0.967912
6.84 0.770149
6.85 0.56887
6.86 0.367184
6.87 0.168159
6.88 -0.0251925
6.89 -0.209994
6.9 -0.383581
6.91 -0.543569
6.92 -0.687897
6.93 -0.814877
6.94 -0.922142
6.95 -1.00928
6.96 -1.07641
6.97 -1.12352
6.98 -1.15097
6.99 -1.15946
7 -1.15
7.01 -1.12385
7.02 -1.08251
7.03 -1.02767
7.04 -0.960762
7.05 -0.883927
7.06 -0.79969
7.07 -0.710131
7.08 -0.61735
7.09 -0.523445
7.1 -0.43049
7.11 -0.340521
7.12 -0.255514
7.13 -0.177364
7.14 -0.108108
7.15 -0.0499583
7.16 -0.00389112
7.17 0.0287608
7.18 0.0468632
7.19 0.0495053
7.2 0.0360252
7.21 0.00603229
7.22 -0.0405723
7.23 -0.103581
7.24 -0.182567
7.25 -0.277625
7.26 -0.386341
7.27 -0.5072
7.28 -0.638418
7.29 -0.77797
7.3 -0.923639
7.31 -1.07306
7.32 -1.22376
7.33 -1.37325
7.34 -1.51903
7.35 -1.65809
7.36 -1.78839
7.37 -1.90793
7.38 -2.01492
7.39 -2.10782
7.4 -2.1854
7.41 -2.24674
7.42 -2.29123
7.43 -2.3186
7.44 -2.32887
7.45 -2.32141
7.46 -2.29737
7.47 -2.25798
7.48 -2.20421
7.49 -2.13715
7.5 -2.05797
7.51 -1.9679
7.52 -1.86819
7.53 -1.76006
7.54 -1.64473
7.55 -1.52313
7.56 -1.3965
7.57 -1.26611
7.58 -1.13296
7.59 -0.998004
7.6 -0.862179
7.61 -0.726418
7.62 -0.591665
7.63 -0.458894
7.64 -0.329114
7.65 -0.203512
7.66 -0.0834858
7.67 0.0300379
7.68 0.135855
7.69 0.232739
7.7 0.319464
7.71 0.39483
7.72 0.457691
7.73 0.506989
7.74 0.541784
7.75 0.561156
7.76 0.563415
7.77 0.549343
7.78 0.518818
7.79 0.471963
7.8 0.409157
7.81 0.331035
7.82 0.238482
7.83 0.13262
7.84 0.0147908
7.85 -0.11347
7.86 -0.250966
7.87 -0.395127
7.88 -0.543931
7.89 -0.69537
7.9 -0.847416
7.91 -0.998058
7.92 -1.14533
7.93 -1.28735
7.94 -1.42234
7.95 -1.54866
7.96 -1.66415
7.97 -1.76775
7.98 -1.85861
7.99 -1.93588
8 -1.9989
8.01 -2.04722
8.02 -2.08066
8.03 -2.09924
8.04 -2.10323
8.05 -2.09313
8.06 -2.06914
8.07 -2.03236
8.08 -1.9845
8.09 -1.92695
8.1 -1.86123
8.11 -1.78902
8.12 -1.71211
8.13 -1.63235
8.14 -1.55163
8.15 -1.47182
8.16 -1.39487
8.17 -1.32281
8.18 -1.257
8.19 -1.19879
8.2 -1.14927
8.21 -1.10926
8.22 -1.07926
8.23 -1.05945
8.24 -1.04964
8.25 -1.04933
8.26 -1.0577
8.27 -1.07389
8.28 -1.09572
8.29 -1.12138
8.3 -1.14882
8.31 -1.17586
8.32 -1.20018
8.33 -1.21943
8.34 -1.23126
8.35 -1.23338
8.36 -1.22363
8.37 -1.1988
8.38 -1.15797
8.39 -1.09971
8.4 -1.02278
8.41 -0.926199
8.42 -0.809293
8.43 -0.671649
8.44 -0.513127
8.45 -0.333838
8.46 -0.134126
8.47 0.0865911
8.48 0.326733
8.49 0.584902
8.5 0.859988
8.51 1.15074
8.52 1.45576
8.53 1.77352
8.54 2.10233
8.55 2.44037
8.56 2.78563
8.57 3.13602
8.58 3.48886
8.59 3.84131
8.6 4.19051
8.61 4.53338
8.62 4.86666
8.63 5.18687
8.64 5.49042
8.65 5.77361
8.66 6.03267
8.67 6.26302
8.68 6.45985
8.69 6.62132
8.7 6.74437
8.71 6.82634
8.72 6.86504
8.73 6.85886
8.74 6.80681
8.75 6.70862
8.76 6.56472
8.77 6.37586
8.78 6.14169
8.79 5.86818
8.8 5.55885
8.81 5.21778
8.82 4.84959
8.83 4.45928
8.84 4.05212
8.85 3.63352
8.86 3.20893
8.87 2.78364
8.88 2.3634
8.89 1.95285
8.9 1.55604
8.91 1.17646
8.92 0.816938
8.93 0.479622
8.94 0.165955
8.95 -0.123313
8.96 -0.388095
8.97 -0.628909
8.98 -0.845499
8.99 -1.04047
9 -1.2162
9.01 -1.37478
9.02 -1.51843
9.03 -1.64935
9.04 -1.76965
9.05 -1.88122
9.06 -1.98572
9.07 -2.08446
9.08 -2.17821
9.09 -2.26762
9.1 -2.35297
9.11 -2.43402
9.12 -2.51022
9.13 -2.58074
9.14 -2.64455
9.15 -2.70047
9.16 -2.74727
9.17 -2.78373
9.18 -2.80832
9.19 -2.81968
9.2 -2.81766
9.21 -2.80177
9.22 -2.7718
9.23 -2.72786
9.24 -2.67035
9.25 -2.59999
9.26 -2.51776
9.27 -2.42493
9.28 -2.32284
9.29 -2.21289
9.3 -2.09745
9.31 -1.97837
9.32 -1.8575
9.33 -1.73665
9.34 -1.61756
9.35 -1.50186
9.36 -1.39105
9.37 -1.28645
9.38 -1.1892
9.39 -1.10097
9.4 -1.02193
9.41 -0.952592
9.42 -0.893297
9.43 -0.844225
9.44 -0.805396
9.45 -0.776677
9.46 -0.7578
9.47 -0.748371
9.48 -0.747884
9.49 -0.756203
9.5 -0.772178
9.51 -0.794833
9.52 -0.823263
9.53 -0.856487
9.54 -0.893451
9.55 -0.933037
9.56 -0.974071
9.57 -1.01533
9.58 -1.05558
9.59 -1.09337
9.6 -1.12734
9.61 -1.15637
9.62 -1.17928
9.63 -1.195
9.64 -1.20257
9.65 -1.20116
9.66 -1.19008
9.67 -1.16887
9.68 -1.13723
9.69 -1.09478
9.7 -1.04151
9.71 -0.978374
9.72 -0.906039
9.73 -0.825369
9.74 -0.737427
9.75 -0.643452
9.76 -0.544827
9.77 -0.44305
9.78 -0.339701
9.79 -0.236428
9.8 -0.135095
9.81 -0.0372641
9.82 0.055564
9.83 0.142004
9.84 0.220816
9.85 0.290938
9.86 0.351504
9.87 0.401869
9.88 0.441619
9.89 0.470584
9.9 0.488003
9.91 0.495105
9.92 0.492521
9.93 0.481096
9.94 0.46189
9.95 0.43616
9.96 0.405341
9.97 0.371021
9.98 0.334912
9.99 0.29882
10 0.264863
10.01 0.23502
10.02 0.211138
10.03 0.195046
10.04 0.188482
10.05 0.193046
10.06 0.21017
10.07 0.24107
10.08 0.286715
10.09 0.347791
10.1 0.425433
10.11 0.519396
10.12 0.628733
10.13 0.752652
10.14 0.889975
10.15 1.03915
10.16 1.19824
10.17 1.36498
10.18 1.5368
10.19 1.71084
10.2 1.88389
10.21 2.05229
10.22 2.21276
10.23 2.36195
10.24 2.49658
10.25 2.61353
10.26 2.70988
10.27 2.78302
10.28 2.83068
10.29 2.85104
10.3 2.84226
10.31 2.802
10.32 2.73196
10.33 2.63253
10.34 2.50463
10.35 2.34972
10.36 2.1698
10.37 1.96729
10.38 1.74505
10.39 1.50627
10.4 1.25442
10.41 0.992694
10.42 0.72588
10.43 0.457745
10.44 0.191962
10.45 -0.0679614
10.46 -0.318765
10.47 -0.557498
10.48 -0.781575
10.49 -0.988825
10.5 -1.17752
10.51 -1.34504
10.52 -1.49157
10.53 -1.61721
10.54 -1.72215
10.55 -1.80701
10.56 -1.87274
10.57 -1.92061
10.58 -1.95214
10.59 -1.96902
10.6 -1.97305
10.61 -1.96562
10.62 -1.94894
10.63 -1.92507
10.64 -1.89556
10.65 -1.86177
10.66 -1.82482
10.67 -1.78555
10.68 -1.74451
10.69 -1.70196
10.7 -1.65788
10.71 -1.61187
10.72 -1.56326
10.73 -1.51134
10.74 -1.45515
10.75 -1.39363
10.76 -1.32566
10.77 -1.25015
10.78 -1.16608
10.79 -1.07256
10.8 -0.968881
10.81 -0.854396
10.82 -0.728439
10.83 -0.591905
10.84 -0.445353
10.85 -0.289698
10.86 -0.126215
10.87 0.0434787
10.88 0.217444
10.89 0.393456
10.9 0.56905
10.91 0.741562
10.92 0.907519
10.93 1.06436
10.94 1.20927
10.95 1.33954
10.96 1.45261
10.97 1.54618
10.98 1.61821
10.99 1.66701
11 1.69128
11.01 1.69012
11.02 1.66134
11.03 1.60635
11.04 1.52604
11.05 1.42135
11.06 1.29362
11.07 1.14453
11.08 0.976087
11.09 0.790549
11.1 0.590392
11.11 0.378241
11.12 0.156487
11.13 -0.0716355
11.14 -0.303115
11.15 -0.535289
11.16 -0.765605
11.17 -0.991663
11.18 -1.21124
11.19 -1.42229
11.2 -1.62301
11.21 -1.81178
11.22 -1.9867
11.23 -2.14632
11.24 -2.29034
11.25 -2.41801
11.26 -2.52875
11.27 -2.62215
11.28 -2.69793
11.29 -2.75594
11.3 -2.79615
11.31 -2.81863
11.32 -2.82319
11.33 -2.80937
11.34 -2.77859
11.35 -2.73126
11.36 -2.66784
11.37 -2.58887
11.38 -2.49492
11.39 -2.38663
11.4 -2.26468
11.41 -2.1298
11.42 -1.9827
11.43 -1.82336
11.44 -1.65353
11.45 -1.47401
11.46 -1.28561
11.47 -1.08912
11.48 -0.885312
11.49 -0.674969
11.5 -0.458841
11.51 -0.23768
11.52 -0.0122339
11.53 0.216925
11.54 0.448741
11.55 0.682328
11.56 0.916781
11.57 1.15111
11.58 1.38422
11.59 1.6149
11.6 1.84181
11.61 2.06347
11.62 2.27825
11.63 2.48384
11.64 2.67837
11.65 2.86009
11.66 3.02692
11.67 3.17678
11.68 3.3076
11.69 3.41735
11.7 3.50416
11.71 3.56631
11.72 3.60233
11.73 3.60996
11.74 3.5881
11.75 3.53757
11.76 3.45839
11.77 3.35101
11.78 3.21635
11.79 3.05572
11.8 2.87088
11.81 2.66396
11.82 2.43745
11.83 2.19384
11.84 1.93586
11.85 1.6677
11.86 1.39261
11.87 1.11382
11.88 0.834476
11.89 0.5576
11.9 0.285997
11.91 0.0222241
11.92 -0.231451
11.93 -0.473009
11.94 -0.699725
11.95 -0.911316
11.96 -1.10685
11.97 -1.28569
11.98 -1.44742
11.99 -1.59183
12 -1.71886
12.01 -1.82857
12.02 -1.92105
12.03 -1.99642
12.04 -2.05357
12.05 -2.09353
12.06 -2.11645
12.07 -2.12219
12.08 -2.11056
12.09 -2.08131
12.1 -2.03416
12.11 -1.96887
12.12 -1.88524
12.13 -1.78319
12.14 -1.66183
12.15 -1.52204
12.16 -1.36494
12.17 -1.19148
12.18 -1.00294
12.19 -0.800946
12.2 -0.587504
12.21 -0.364949
12.22 -0.135935
12.23 0.0966033
12.24 0.329389
12.25 0.558713
12.26 0.781172
12.27 0.993382
12.28 1.19206
12.29 1.37413
12.3 1.53675
12.31 1.67746
12.32 1.79418
12.33 1.88531
12.34 1.94912
12.35 1.98403
12.36 1.99167
12.37 1.97262
12.38 1.92794
12.39 1.85911
12.4 1.76803
12.41 1.6569
12.42 1.52816
12.43 1.38443
12.44 1.22836
12.45 1.06225
12.46 0.889638
12.47 0.713024
12.48 0.534719
12.49 0.356802
12.5 0.18109
12.51 0.00912077
12.52 -0.157843
12.53 -0.31881
12.54 -0.473034
12.55 -0.619431
12.56 -0.758092
12.57 -0.888878
12.58 -1.01165
12.59 -1.12628
12.6 -1.23261
12.61 -1.33044
12.62 -1.41942
12.63 -1.49911
12.64 -1.56889
12.65 -1.62736
12.66 -1.67384
12.67 -1.70752
12.68 -1.72728
12.69 -1.73189
12.7 -1.72014
12.71 -1.69087
12.72 -1.64301
12.73 -1.57566
12.74 -1.48814
12.75 -1.37922
12.76 -1.24882
12.77 -1.09818
12.78 -0.928074
12.79 -0.739716
12.8 -0.53474
12.81 -0.315209
12.82 -0.0835883
12.83 0.157286
12.84 0.404255
12.85 0.653861
12.86 0.902069
12.87 1.14498
12.88 1.37882
12.89 1.59985
12.9 1.8045
12.91 1.98942
12.92 2.15159
12.93 2.28834
12.94 2.39748
12.95 2.47703
12.96 2.52376
12.97 2.53937
12.98 2.52391
12.99 2.47801
13 2.40285
13.01 2.30008
13.02 2.17182
13.03 2.02057
13.04 1.84915
13.05 1.66063
13.06 1.45747
13.07 1.24418
13.08 1.02417
13.09 0.800692
13.1 0.576824
13.11 0.355448
13.12 0.139189
13.13 -0.0696144
13.14 -0.268938
13.15 -0.45708
13.16 -0.631868
13.17 -0.792594
13.18 -0.938835
13.19 -1.07011
13.2 -1.18616
13.21 -1.28687
13.22 -1.37228
13.23 -1.4425
13.24 -1.49773
13.25 -1.53814
13.26 -1.56335
13.27 -1.57357
13.28 -1.56956
13.29 -1.55149
13.3 -1.5195
13.31 -1.47379
13.32 -1.41463
13.33 -1.34234
13.34 -1.25742
13.35 -1.16051
13.36 -1.05222
13.37 -0.933439
13.38 -0.806194
13.39 -0.672136
13.4 -0.533181
13.41 -0.39149
13.42 -0.249438
13.43 -0.109578
13.44 0.025418
13.45 0.152821
13.46 0.269785
13.47 0.372662
13.48 0.459821
13.49 0.52913
13.5 0.578803
13.51 0.607468
13.52 0.614219
13.53 0.598658
