# xPDFsuite Configuration #
[PDF]
wavelength = 0.1
dataformat = QA
inputfile = x0_20171023-042141__240.0K_001.chi
backgroundfile = kapton_1mmOD_20171019-202628_0ea754_001_fit2d.chi
mode = xray
bgscale = 1.0
composition = SrFe2As2
outputtype = gr
qmaxinst = 25.0
qmin = 0.4
qmax = 25.0
rmax = 100.0
rmin = 0.0
rstep = 0.01
rpoly = 0.7

[Misc]
inputdir = /home/ben/scatteringdata/2017_03_NOMAD-C4/xray/OctoberBeamtime/x0/x0_8/chi_fit2d
savedir = /home/ben/scatteringdata/2017_03_NOMAD-C4/xray/OctoberBeamtime/x0/x0_8/pdf_fit2d
backgroundfilefull = /home/ben/scatteringdata/2017_03_NOMAD-C4/xray/OctoberBeamtime/kapton_1mmOD_20171019-202628_0ea754_001_fit2d.chi

#### start data
#S 1
#L r($\AA$)  G($\AA^{-2}$)
0 0
0.01 0.000219393
0.02 0.000424063
0.03 0.000601228
0.04 0.000739691
0.05 0.000830349
0.06 0.000866474
0.07 0.000843721
0.08 0.000759891
0.09 0.000614465
0.1 0.000407979
0.11 0.000137428
0.12 -0.000193563
0.13 -0.000584228
0.14 -0.00103552
0.15 -0.00154872
0.16 -0.00212446
0.17 -0.00276121
0.18 -0.00345321
0.19 -0.00418795
0.2 -0.00494328
0.21 -0.00568104
0.22 -0.00634342
0.23 -0.00685787
0.24 -0.00713048
0.25 -0.00704582
0.26 -0.00646731
0.27 -0.00523915
0.28 -0.00318982
0.29 -0.000137268
0.3 0.00410421
0.31 0.00976771
0.32 0.0170571
0.33 0.0260396
0.34 0.0368102
0.35 0.0494138
0.36 0.0638351
0.37 0.07999
0.38 0.0977185
0.39 0.116781
0.4 0.136857
0.41 0.15755
0.42 0.178346
0.43 0.198664
0.44 0.217918
0.45 0.235491
0.46 0.250765
0.47 0.263134
0.48 0.272036
0.49 0.27697
0.5 0.277521
0.51 0.273375
0.52 0.263959
0.53 0.249639
0.54 0.230549
0.55 0.20697
0.56 0.179329
0.57 0.148187
0.58 0.114224
0.59 0.0782137
0.6 0.041002
0.61 0.00347339
0.62 -0.0333821
0.63 -0.0686652
0.64 -0.101599
0.65 -0.131499
0.66 -0.157804
0.67 -0.180105
0.68 -0.198158
0.69 -0.211896
0.7 -0.221428
0.71 -0.227036
0.72 -0.229017
0.73 -0.2281
0.74 -0.225106
0.75 -0.220827
0.76 -0.216091
0.77 -0.21173
0.78 -0.208539
0.79 -0.207241
0.8 -0.208456
0.81 -0.212673
0.82 -0.220349
0.83 -0.231691
0.84 -0.246498
0.85 -0.264555
0.86 -0.285491
0.87 -0.308793
0.88 -0.333835
0.89 -0.359907
0.9 -0.386252
0.91 -0.412099
0.92 -0.436663
0.93 -0.459115
0.94 -0.478968
0.95 -0.495775
0.96 -0.50923
0.97 -0.519184
0.98 -0.525649
0.99 -0.528789
1 -0.528914
1.01 -0.526459
1.02 -0.521957
1.03 -0.515963
1.04 -0.509282
1.05 -0.502563
1.06 -0.496421
1.07 -0.491404
1.08 -0.487967
1.09 -0.486455
1.1 -0.487083
1.11 -0.489935
1.12 -0.494957
1.13 -0.502089
1.14 -0.510889
1.15 -0.520934
1.16 -0.531766
1.17 -0.542896
1.18 -0.553836
1.19 -0.564127
1.2 -0.573367
1.21 -0.581237
1.22 -0.58752
1.23 -0.59202
1.24 -0.594814
1.25 -0.59611
1.26 -0.596177
1.27 -0.595377
1.28 -0.59414
1.29 -0.592944
1.3 -0.592278
1.31 -0.592619
1.32 -0.594401
1.33 -0.598059
1.34 -0.603893
1.35 -0.611943
1.36 -0.622209
1.37 -0.634555
1.38 -0.648723
1.39 -0.664335
1.4 -0.68092
1.41 -0.697931
1.42 -0.714777
1.43 -0.730823
1.44 -0.745374
1.45 -0.757961
1.46 -0.768149
1.47 -0.775613
1.48 -0.780159
1.49 -0.781732
1.5 -0.780424
1.51 -0.77647
1.52 -0.770234
1.53 -0.76219
1.54 -0.752872
1.55 -0.74305
1.56 -0.733386
1.57 -0.724524
1.58 -0.717069
1.59 -0.711549
1.6 -0.70839
1.61 -0.707902
1.62 -0.710259
1.63 -0.715494
1.64 -0.723684
1.65 -0.734392
1.66 -0.747217
1.67 -0.761703
1.68 -0.77733
1.69 -0.793547
1.7 -0.809803
1.71 -0.825569
1.72 -0.840369
1.73 -0.853802
1.74 -0.865452
1.75 -0.875144
1.76 -0.882839
1.77 -0.888548
1.78 -0.892366
1.79 -0.894462
1.8 -0.895054
1.81 -0.894387
1.82 -0.892709
1.83 -0.890251
1.84 -0.887191
1.85 -0.883676
1.86 -0.879796
1.87 -0.875554
1.88 -0.870895
1.89 -0.865718
1.9 -0.859898
1.91 -0.853308
1.92 -0.845847
1.93 -0.837466
1.94 -0.828183
1.95 -0.818134
1.96 -0.807665
1.97 -0.7972
1.98 -0.787302
1.99 -0.778652
2 -0.772028
2.01 -0.768271
2.02 -0.768232
2.03 -0.772724
2.04 -0.782491
2.05 -0.798495
2.06 -0.82057
2.07 -0.848637
2.08 -0.88225
2.09 -0.920546
2.1 -0.962229
2.11 -1.00555
2.12 -1.04835
2.13 -1.08804
2.14 -1.12173
2.15 -1.14533
2.16 -1.15584
2.17 -1.15002
2.18 -1.12464
2.19 -1.07677
2.2 -1.00388
2.21 -0.904002
2.22 -0.77584
2.23 -0.618882
2.24 -0.433494
2.25 -0.219576
2.26 0.0194416
2.27 0.279463
2.28 0.556199
2.29 0.844562
2.3 1.13879
2.31 1.43262
2.32 1.71942
2.33 1.99247
2.34 2.24509
2.35 2.46958
2.36 2.65946
2.37 2.81091
2.38 2.9199
2.39 2.98349
2.4 2.99993
2.41 2.96873
2.42 2.89069
2.43 2.7679
2.44 2.60364
2.45 2.40155
2.46 2.16655
2.47 1.90704
2.48 1.62985
2.49 1.3421
2.5 1.05101
2.51 0.763607
2.52 0.486577
2.53 0.226004
2.54 -0.0127838
2.55 -0.225126
2.56 -0.405471
2.57 -0.553725
2.58 -0.668932
2.59 -0.751229
2.6 -0.801786
2.61 -0.822707
2.62 -0.816903
2.63 -0.787943
2.64 -0.739883
2.65 -0.677094
2.66 -0.603658
2.67 -0.525033
2.68 -0.445497
2.69 -0.368875
2.7 -0.298508
2.71 -0.237174
2.72 -0.187032
2.73 -0.149598
2.74 -0.12575
2.75 -0.115761
2.76 -0.120096
2.77 -0.137421
2.78 -0.166203
2.79 -0.204973
2.8 -0.252093
2.81 -0.305854
2.82 -0.364564
2.83 -0.426619
2.84 -0.490563
2.85 -0.555129
2.86 -0.619208
2.87 -0.68189
2.88 -0.742596
2.89 -0.800891
2.9 -0.856459
2.91 -0.909054
2.92 -0.958445
2.93 -1.00436
2.94 -1.04646
2.95 -1.08425
2.96 -1.11696
2.97 -1.14351
2.98 -1.16317
2.99 -1.17479
3 -1.17711
3.01 -1.1688
3.02 -1.14852
3.03 -1.11502
3.04 -1.06716
3.05 -1.00403
3.06 -0.924827
3.07 -0.828248
3.08 -0.715636
3.09 -0.587618
3.1 -0.445274
3.11 -0.290142
3.12 -0.124194
3.13 0.0502023
3.14 0.230334
3.15 0.413217
3.16 0.595677
3.17 0.773914
3.18 0.944675
3.19 1.10485
3.2 1.25152
3.21 1.38207
3.22 1.49428
3.23 1.58635
3.24 1.65701
3.25 1.70547
3.26 1.73152
3.27 1.73419
3.28 1.71525
3.29 1.67657
3.3 1.61994
3.31 1.54746
3.32 1.46152
3.33 1.36468
3.34 1.2596
3.35 1.14898
3.36 1.03545
3.37 0.921628
3.38 0.810086
3.39 0.702888
3.4 0.601815
3.41 0.508345
3.42 0.423644
3.43 0.348559
3.44 0.283628
3.45 0.229094
3.46 0.184927
3.47 0.151121
3.48 0.127388
3.49 0.112498
3.5 0.105642
3.51 0.105924
3.52 0.112398
3.53 0.124101
3.54 0.140085
3.55 0.159451
3.56 0.181367
3.57 0.205112
3.58 0.230091
3.59 0.255716
3.6 0.281665
3.61 0.307763
3.62 0.333987
3.63 0.360459
3.64 0.387445
3.65 0.415343
3.66 0.444662
3.67 0.476008
3.68 0.510321
3.69 0.548173
3.7 0.590265
3.71 0.637273
3.72 0.689792
3.73 0.748296
3.74 0.813103
3.75 0.884333
3.76 0.961875
3.77 1.04536
3.78 1.13441
3.79 1.22774
3.8 1.32396
3.81 1.42149
3.82 1.5185
3.83 1.61295
3.84 1.70259
3.85 1.7851
3.86 1.85807
3.87 1.91912
3.88 1.96524
3.89 1.99423
3.9 2.00483
3.91 1.99559
3.92 1.96545
3.93 1.91382
3.94 1.84059
3.95 1.74617
3.96 1.63147
3.97 1.49793
3.98 1.34703
3.99 1.18101
4 1.00353
4.01 0.8176
4.02 0.62642
4.03 0.43326
4.04 0.241373
4.05 0.0538888
4.06 -0.126275
4.07 -0.296502
4.08 -0.454366
4.09 -0.59715
4.1 -0.724487
4.11 -0.835651
4.12 -0.930414
4.13 -1.00903
4.14 -1.07221
4.15 -1.12103
4.16 -1.1569
4.17 -1.18149
4.18 -1.19661
4.19 -1.20369
4.2 -1.20531
4.21 -1.20322
4.22 -1.19896
4.23 -1.1938
4.24 -1.18873
4.25 -1.18438
4.26 -1.18105
4.27 -1.17866
4.28 -1.17684
4.29 -1.1748
4.3 -1.1715
4.31 -1.16576
4.32 -1.15629
4.33 -1.14178
4.34 -1.1209
4.35 -1.09248
4.36 -1.05547
4.37 -1.00906
4.38 -0.952705
4.39 -0.8857
4.4 -0.808295
4.41 -0.721343
4.42 -0.625664
4.43 -0.522387
4.44 -0.412916
4.45 -0.298892
4.46 -0.182142
4.47 -0.0646327
4.48 0.0515928
4.49 0.164299
4.5 0.271132
4.51 0.370352
4.52 0.460173
4.53 0.538991
4.54 0.605413
4.55 0.658281
4.56 0.696691
4.57 0.719997
4.58 0.727817
4.59 0.719801
4.6 0.695288
4.61 0.655737
4.62 0.601766
4.63 0.534183
4.64 0.453969
4.65 0.362253
4.66 0.260289
4.67 0.149436
4.68 0.0311344
4.69 -0.0931124
4.7 -0.22199
4.71 -0.353478
4.72 -0.486011
4.73 -0.618056
4.74 -0.748129
4.75 -0.874809
4.76 -0.996764
4.77 -1.11277
4.78 -1.22171
4.79 -1.32264
4.8 -1.41414
4.81 -1.49595
4.82 -1.5678
4.83 -1.62946
4.84 -1.68087
4.85 -1.72214
4.86 -1.75354
4.87 -1.77549
4.88 -1.78853
4.89 -1.79329
4.9 -1.79016
4.91 -1.78006
4.92 -1.76397
4.93 -1.74259
4.94 -1.71655
4.95 -1.68637
4.96 -1.65248
4.97 -1.61514
4.98 -1.57449
4.99 -1.53052
5 -1.48294
5.01 -1.43137
5.02 -1.37555
5.03 -1.31502
5.04 -1.24922
5.05 -1.17762
5.06 -1.09971
5.07 -1.01503
5.08 -0.923263
5.09 -0.824191
5.1 -0.717661
5.11 -0.603496
5.12 -0.482574
5.13 -0.355495
5.14 -0.223064
5.15 -0.0862794
5.16 0.0536893
5.17 0.195526
5.18 0.337802
5.19 0.47901
5.2 0.617607
5.21 0.75159
5.22 0.879707
5.23 1.00057
5.24 1.11289
5.25 1.21557
5.26 1.30764
5.27 1.38833
5.28 1.45707
5.29 1.51348
5.3 1.55735
5.31 1.58785
5.32 1.60576
5.33 1.61158
5.34 1.60572
5.35 1.58867
5.36 1.56098
5.37 1.52324
5.38 1.47606
5.39 1.42006
5.4 1.35585
5.41 1.28368
5.42 1.20431
5.43 1.11854
5.44 1.02691
5.45 0.929958
5.46 0.828217
5.47 0.722236
5.48 0.612582
5.49 0.499851
5.5 0.384676
5.51 0.26769
5.52 0.149671
5.53 0.0314591
5.54 -0.0861559
5.55 -0.202358
5.56 -0.316317
5.57 -0.427201
5.58 -0.534189
5.59 -0.636485
5.6 -0.733332
5.61 -0.823904
5.62 -0.907188
5.63 -0.983033
5.64 -1.05097
5.65 -1.11061
5.66 -1.16165
5.67 -1.20388
5.68 -1.23717
5.69 -1.26147
5.7 -1.2768
5.71 -1.28323
5.72 -1.28026
5.73 -1.26882
5.74 -1.24918
5.75 -1.22167
5.76 -1.18667
5.77 -1.1446
5.78 -1.09595
5.79 -1.04123
5.8 -0.981058
5.81 -0.916067
5.82 -0.846751
5.83 -0.774177
5.84 -0.699255
5.85 -0.622892
5.86 -0.546049
5.87 -0.469723
5.88 -0.394941
5.89 -0.322741
5.9 -0.254155
5.91 -0.190187
5.92 -0.132127
5.93 -0.0808223
5.94 -0.0368713
5.95 -0.000927986
5.96 0.026488
5.97 0.0450054
5.98 0.0544117
5.99 0.05466
6 0.0458709
6.01 0.0283299
6.02 0.00220869
6.03 -0.0319066
6.04 -0.0728793
6.05 -0.119844
6.06 -0.171838
6.07 -0.227824
6.08 -0.286706
6.09 -0.347348
6.1 -0.408589
6.11 -0.469257
6.12 -0.528125
6.13 -0.583797
6.14 -0.635252
6.15 -0.681374
6.16 -0.721073
6.17 -0.753284
6.18 -0.776979
6.19 -0.79116
6.2 -0.794875
6.21 -0.78722
6.22 -0.767312
6.23 -0.733352
6.24 -0.685667
6.25 -0.623737
6.26 -0.547191
6.27 -0.455829
6.28 -0.349654
6.29 -0.228891
6.3 -0.0940141
6.31 0.0542422
6.32 0.214867
6.33 0.387228
6.34 0.568969
6.35 0.758074
6.36 0.952439
6.37 1.14977
6.38 1.34761
6.39 1.54344
6.4 1.73468
6.41 1.9188
6.42 2.09337
6.43 2.25537
6.44 2.40291
6.45 2.53466
6.46 2.64934
6.47 2.74605
6.48 2.8243
6.49 2.88407
6.5 2.92576
6.51 2.95019
6.52 2.95855
6.53 2.95191
6.54 2.93222
6.55 2.90216
6.56 2.8639
6.57 2.8196
6.58 2.77138
6.59 2.72122
6.6 2.67086
6.61 2.6218
6.62 2.57515
6.63 2.53177
6.64 2.49215
6.65 2.45596
6.66 2.4227
6.67 2.39149
6.68 2.36114
6.69 2.3302
6.7 2.29706
6.71 2.25998
6.72 2.21718
6.73 2.16691
6.74 2.1068
6.75 2.03614
6.76 1.95386
6.77 1.85926
6.78 1.752
6.79 1.63213
6.8 1.50011
6.81 1.35679
6.82 1.20339
6.83 1.04148
6.84 0.872575
6.85 0.699371
6.86 0.52423
6.87 0.349534
6.88 0.177691
6.89 0.0110646
6.9 -0.148085
6.91 -0.297658
6.92 -0.435767
6.93 -0.560774
6.94 -0.670475
6.95 -0.764153
6.96 -0.84154
6.97 -0.902286
6.98 -0.946354
6.99 -0.974005
7 -0.985776
7.01 -0.982458
7.02 -0.965071
7.03 -0.934831
7.04 -0.892745
7.05 -0.84048
7.06 -0.780185
7.07 -0.713603
7.08 -0.642528
7.09 -0.568789
7.1 -0.494223
7.11 -0.420656
7.12 -0.349881
7.13 -0.283637
7.14 -0.223767
7.15 -0.172265
7.16 -0.130172
7.17 -0.098757
7.18 -0.0791211
7.19 -0.0721702
7.2 -0.078595
7.21 -0.0988514
7.22 -0.133144
7.23 -0.181413
7.24 -0.243411
7.25 -0.319356
7.26 -0.40729
7.27 -0.506027
7.28 -0.614144
7.29 -0.730009
7.3 -0.851815
7.31 -0.977617
7.32 -1.10537
7.33 -1.233
7.34 -1.35841
7.35 -1.4791
7.36 -1.59326
7.37 -1.69917
7.38 -1.79523
7.39 -1.88007
7.4 -1.95256
7.41 -2.01183
7.42 -2.05725
7.43 -2.08847
7.44 -2.1054
7.45 -2.10739
7.46 -2.09527
7.47 -2.06998
7.48 -2.03224
7.49 -1.98286
7.5 -1.92276
7.51 -1.85289
7.52 -1.77424
7.53 -1.68779
7.54 -1.59448
7.55 -1.49506
7.56 -1.39049
7.57 -1.28185
7.58 -1.16995
7.59 -1.05557
7.6 -0.939479
7.61 -0.822458
7.62 -0.705301
7.63 -0.588841
7.64 -0.473959
7.65 -0.361683
7.66 -0.253242
7.67 -0.149566
7.68 -0.0517928
7.69 0.0388958
7.7 0.121294
7.71 0.194192
7.72 0.256411
7.73 0.306824
7.74 0.344398
7.75 0.368101
7.76 0.376173
7.77 0.369113
7.78 0.346609
7.79 0.30859
7.8 0.255234
7.81 0.186979
7.82 0.104523
7.83 0.00881455
7.84 -0.0989582
7.85 -0.21739
7.86 -0.345422
7.87 -0.480541
7.88 -0.620775
7.89 -0.764139
7.9 -0.908616
7.91 -1.05219
7.92 -1.19287
7.93 -1.32876
7.94 -1.45808
7.95 -1.57917
7.96 -1.6899
7.97 -1.78922
7.98 -1.87634
7.99 -1.95043
8 -2.01091
8.01 -2.05745
8.02 -2.08991
8.03 -2.10844
8.04 -2.11336
8.05 -2.10524
8.06 -2.08435
8.07 -2.05179
8.08 -2.00917
8.09 -1.95777
8.1 -1.89898
8.11 -1.83427
8.12 -1.76517
8.13 -1.69326
8.14 -1.6201
8.15 -1.54722
8.16 -1.47617
8.17 -1.40853
8.18 -1.34542
8.19 -1.28786
8.2 -1.23672
8.21 -1.19261
8.22 -1.15594
8.23 -1.12684
8.24 -1.1052
8.25 -1.09064
8.26 -1.08258
8.27 -1.08037
8.28 -1.08239
8.29 -1.08727
8.3 -1.09347
8.31 -1.09932
8.32 -1.10303
8.33 -1.10276
8.34 -1.09666
8.35 -1.08286
8.36 -1.0596
8.37 -1.02422
8.38 -0.975835
8.39 -0.913148
8.4 -0.834978
8.41 -0.740342
8.42 -0.62847
8.43 -0.498808
8.44 -0.35102
8.45 -0.184987
8.46 -0.00079748
8.47 0.20229
8.48 0.423059
8.49 0.660401
8.5 0.913437
8.51 1.18112
8.52 1.46222
8.53 1.75538
8.54 2.05905
8.55 2.37152
8.56 2.69091
8.57 3.01527
8.58 3.34208
8.59 3.66871
8.6 3.99254
8.61 4.31079
8.62 4.62051
8.63 4.91865
8.64 5.20204
8.65 5.46747
8.66 5.71171
8.67 5.93083
8.68 6.1207
8.69 6.2798
8.7 6.40553
8.71 6.49559
8.72 6.54809
8.73 6.56156
8.74 6.53506
8.75 6.46818
8.76 6.36108
8.77 6.21411
8.78 6.02653
8.79 5.80319
8.8 5.54668
8.81 5.26011
8.82 4.947
8.83 4.61122
8.84 4.25691
8.85 3.88836
8.86 3.50994
8.87 3.126
8.88 2.74093
8.89 2.35908
8.9 1.98403
8.91 1.61898
8.92 1.26667
8.93 0.929339
8.94 0.608741
8.95 0.306096
8.96 0.0221273
8.97 -0.242914
8.98 -0.488094
8.99 -0.714812
9 -0.924366
9.01 -1.11788
9.02 -1.29662
9.03 -1.46192
9.04 -1.61508
9.05 -1.75736
9.06 -1.88987
9.07 -2.01356
9.08 -2.12879
9.09 -2.23616
9.1 -2.33616
9.11 -2.42878
9.12 -2.51376
9.13 -2.59068
9.14 -2.65898
9.15 -2.718
9.16 -2.76702
9.17 -2.80533
9.18 -2.83191
9.19 -2.84585
9.2 -2.84737
9.21 -2.83623
9.22 -2.81239
9.23 -2.77604
9.24 -2.72759
9.25 -2.66765
9.26 -2.59703
9.27 -2.51676
9.28 -2.42789
9.29 -2.33146
9.3 -2.22946
9.31 -2.12335
9.32 -2.01461
9.33 -1.90472
9.34 -1.7951
9.35 -1.68711
9.36 -1.58202
9.37 -1.48098
9.38 -1.385
9.39 -1.2955
9.4 -1.21283
9.41 -1.13754
9.42 -1.07008
9.43 -1.01075
9.44 -0.959744
9.45 -0.917124
9.46 -0.882842
9.47 -0.856744
9.48 -0.838573
9.49 -0.828426
9.5 -0.825474
9.51 -0.829022
9.52 -0.83843
9.53 -0.852979
9.54 -0.871868
9.55 -0.894224
9.56 -0.919106
9.57 -0.945516
9.58 -0.972408
9.59 -0.998623
9.6 -1.02296
9.61 -1.04434
9.62 -1.06173
9.63 -1.07411
9.64 -1.08056
9.65 -1.08024
9.66 -1.07246
9.67 -1.05666
9.68 -1.03243
9.69 -0.99929
9.7 -0.957054
9.71 -0.906366
9.72 -0.847627
9.73 -0.781423
9.74 -0.708519
9.75 -0.629838
9.76 -0.546445
9.77 -0.459519
9.78 -0.370324
9.79 -0.280187
9.8 -0.190595
9.81 -0.102925
9.82 -0.0184522
9.83 0.0616302
9.84 0.136239
9.85 0.204424
9.86 0.265396
9.87 0.318539
9.88 0.363423
9.89 0.399821
9.9 0.427034
9.91 0.445954
9.92 0.457013
9.93 0.460818
9.94 0.458154
9.95 0.449971
9.96 0.43736
9.97 0.421542
9.98 0.403837
9.99 0.385643
10 0.368572
10.01 0.354184
10.02 0.343928
10.03 0.339232
10.04 0.341456
10.05 0.351859
10.06 0.371575
10.07 0.401579
10.08 0.442661
10.09 0.495402
10.1 0.560733
10.11 0.638546
10.12 0.728198
10.13 0.829166
10.14 0.940634
10.15 1.0615
10.16 1.19037
10.17 1.32558
10.18 1.46524
10.19 1.60719
10.2 1.74905
10.21 1.88801
10.22 2.02151
10.23 2.14692
10.24 2.26162
10.25 2.36308
10.26 2.4489
10.27 2.51685
10.28 2.56495
10.29 2.59151
10.3 2.59481
10.31 2.57261
10.32 2.52594
10.33 2.45476
10.34 2.35941
10.35 2.24072
10.36 2.09988
10.37 1.93852
10.38 1.75861
10.39 1.56242
10.4 1.35252
10.41 1.13101
10.42 0.90193
10.43 0.668283
10.44 0.433082
10.45 0.199282
10.46 -0.0302846
10.47 -0.252965
10.48 -0.466335
10.49 -0.668243
10.5 -0.856849
10.51 -1.02959
10.52 -1.18601
10.53 -1.32562
10.54 -1.44806
10.55 -1.55331
10.56 -1.64166
10.57 -1.71368
10.58 -1.77018
10.59 -1.8122
10.6 -1.84091
10.61 -1.85705
10.62 -1.86231
10.63 -1.85842
10.64 -1.84664
10.65 -1.82816
10.66 -1.80402
10.67 -1.77512
10.68 -1.74214
10.69 -1.70557
10.7 -1.66571
10.71 -1.6225
10.72 -1.57574
10.73 -1.52525
10.74 -1.47053
10.75 -1.41099
10.76 -1.34595
10.77 -1.27469
10.78 -1.19653
10.79 -1.11081
10.8 -1.01701
10.81 -0.914572
10.82 -0.802894
10.83 -0.682585
10.84 -0.553964
10.85 -0.417617
10.86 -0.274412
10.87 -0.125495
10.88 0.0277137
10.89 0.183544
10.9 0.340096
10.91 0.495275
10.92 0.646364
10.93 0.791144
10.94 0.927227
10.95 1.05225
10.96 1.16392
10.97 1.26009
10.98 1.33879
10.99 1.39831
11 1.43718
11.01 1.45429
11.02 1.4473
11.03 1.417
11.04 1.36378
11.05 1.28803
11.06 1.19053
11.07 1.07242
11.08 0.935123
11.09 0.780364
11.1 0.610107
11.11 0.426513
11.12 0.231458
11.13 0.0278454
11.14 -0.18152
11.15 -0.394162
11.16 -0.607648
11.17 -0.819626
11.18 -1.02786
11.19 -1.23026
11.2 -1.42489
11.21 -1.61
11.22 -1.78359
11.23 -1.94403
11.24 -2.09072
11.25 -2.22271
11.26 -2.33925
11.27 -2.43975
11.28 -2.52379
11.29 -2.59107
11.3 -2.64146
11.31 -2.67491
11.32 -2.69118
11.33 -2.68974
11.34 -2.67191
11.35 -2.63805
11.36 -2.58857
11.37 -2.52394
11.38 -2.44469
11.39 -2.3514
11.4 -2.24469
11.41 -2.12523
11.42 -1.99367
11.43 -1.84995
11.44 -1.69578
11.45 -1.53192
11.46 -1.35916
11.47 -1.1783
11.48 -0.990123
11.49 -0.795441
11.5 -0.595051
11.51 -0.389753
11.52 -0.180352
11.53 0.0325139
11.54 0.247761
11.55 0.464497
11.56 0.681835
11.57 0.898846
11.58 1.11454
11.59 1.32788
11.6 1.53774
11.61 1.74292
11.62 1.94212
11.63 2.13353
11.64 2.31572
11.65 2.48739
11.66 2.64696
11.67 2.79283
11.68 2.92341
11.69 3.03713
11.7 3.13247
11.71 3.20802
11.72 3.26252
11.73 3.29399
11.74 3.3013
11.75 3.28485
11.76 3.24433
11.77 3.1797
11.78 3.09126
11.79 2.97963
11.8 2.84572
11.81 2.69078
11.82 2.51632
11.83 2.32382
11.84 2.11487
11.85 1.89278
11.86 1.65993
11.87 1.4188
11.88 1.1719
11.89 0.92172
11.9 0.670731
11.91 0.421301
11.92 0.175673
11.93 -0.0640164
11.94 -0.295136
11.95 -0.516469
11.96 -0.726514
11.97 -0.92396
11.98 -1.10768
11.99 -1.2767
12 -1.43021
12.01 -1.56753
12.02 -1.68807
12.03 -1.79133
12.04 -1.87561
12.05 -1.94157
12.06 -1.98908
12.07 -2.01785
12.08 -2.02765
12.09 -2.01829
12.1 -1.98965
12.11 -1.94169
12.12 -1.87449
12.13 -1.78828
12.14 -1.68246
12.15 -1.5582
12.16 -1.41687
12.17 -1.25956
12.18 -1.08763
12.19 -0.902691
12.2 -0.706637
12.21 -0.501591
12.22 -0.289913
12.23 -0.0741559
12.24 0.142906
12.25 0.358121
12.26 0.568561
12.27 0.771362
12.28 0.963736
12.29 1.14304
12.3 1.30681
12.31 1.45287
12.32 1.57931
12.33 1.6846
12.34 1.76704
12.35 1.82496
12.36 1.85942
12.37 1.87054
12.38 1.85883
12.39 1.82516
12.4 1.77073
12.41 1.69702
12.42 1.60575
12.43 1.49881
12.44 1.37815
12.45 1.24524
12.46 1.10321
12.47 0.954115
12.48 0.799927
12.49 0.642504
12.5 0.483555
12.51 0.324625
12.52 0.167084
12.53 0.0121295
12.54 -0.139209
12.55 -0.285671
12.56 -0.426745
12.57 -0.561848
12.58 -0.690419
12.59 -0.811939
12.6 -0.925897
12.61 -1.03177
12.62 -1.12899
12.63 -1.21694
12.64 -1.29495
12.65 -1.3616
12.66 -1.41633
12.67 -1.45853
12.68 -1.48729
12.69 -1.5017
12.7 -1.50087
12.71 -1.48398
12.72 -1.45031
12.73 -1.39926
12.74 -1.33044
12.75 -1.24293
12.76 -1.13682
12.77 -1.01325
12.78 -0.872934
12.79 -0.716891
12.8 -0.546469
12.81 -0.363328
12.82 -0.169435
12.83 0.0329693
12.84 0.241392
12.85 0.45314
12.86 0.665071
12.87 0.87403
12.88 1.077
12.89 1.27098
12.9 1.45307
12.91 1.6205
12.92 1.77073
12.93 1.90144
12.94 2.01066
12.95 2.09654
12.96 2.15616
12.97 2.19046
12.98 2.19911
12.99 2.1822
13 2.14023
13.01 2.07409
13.02 1.98505
13.03 1.87472
13.04 1.74498
13.05 1.598
13.06 1.43517
13.07 1.26018
13.08 1.07571
13.09 0.884351
13.1 0.688657
13.11 0.491111
13.12 0.294076
13.13 0.0997631
13.14 -0.0897936
13.15 -0.272758
13.16 -0.446942
13.17 -0.611105
13.18 -0.764288
13.19 -0.90553
13.2 -1.03405
13.21 -1.14925
13.22 -1.25066
13.23 -1.33794
13.24 -1.41087
13.25 -1.46932
13.26 -1.51261
13.27 -1.54078
13.28 -1.55451
13.29 -1.55392
13.3 -1.53924
13.31 -1.51074
13.32 -1.46881
13.33 -1.41394
13.34 -1.34673
13.35 -1.26794
13.36 -1.17824
13.37 -1.07857
13.38 -0.970816
13.39 -0.856487
13.4 -0.737256
13.41 -0.614967
13.42 -0.491608
13.43 -0.369281
13.44 -0.250166
13.45 -0.136475
13.46 -0.0304985
13.47 0.0648533
13.48 0.148195
13.49 0.217767
13.5 0.272064
