# xPDFsuite Configuration #
[PDF]
wavelength = 0.1
dataformat = QA
inputfile = x0_20171023-041500__228.0K_001.chi
backgroundfile = kapton_1mmOD_20171019-202628_0ea754_001_fit2d.chi
mode = xray
bgscale = 1.0
composition = SrFe2As2
outputtype = gr
qmaxinst = 25.0
qmin = 0.4
qmax = 25.0
rmax = 100.0
rmin = 0.0
rstep = 0.01
rpoly = 0.7

[Misc]
inputdir = /home/ben/scatteringdata/2017_03_NOMAD-C4/xray/OctoberBeamtime/x0/x0_8/chi_fit2d
savedir = /home/ben/scatteringdata/2017_03_NOMAD-C4/xray/OctoberBeamtime/x0/x0_8/pdf_fit2d
backgroundfilefull = /home/ben/scatteringdata/2017_03_NOMAD-C4/xray/OctoberBeamtime/kapton_1mmOD_20171019-202628_0ea754_001_fit2d.chi

#### start data
#S 1
#L r($\AA$)  G($\AA^{-2}$)
0 0
0.01 0.000203807
0.02 0.000393918
0.03 0.000558442
0.04 0.000686951
0.05 0.000770948
0.06 0.000804095
0.07 0.000782202
0.08 0.000702963
0.09 0.000565487
0.1 0.000369687
0.11 0.000111769
0.12 -0.000205855
0.13 -0.000583572
0.14 -0.00102345
0.15 -0.00152776
0.16 -0.00209788
0.17 -0.00273268
0.18 -0.00342628
0.19 -0.00416544
0.2 -0.00492656
0.21 -0.00566902
0.22 -0.00633149
0.23 -0.00683732
0.24 -0.0070877
0.25 -0.00696159
0.26 -0.00631635
0.27 -0.0049899
0.28 -0.00280449
0.29 0.000427688
0.3 0.00489723
0.31 0.0108427
0.32 0.0184704
0.33 0.0278439
0.34 0.0390545
0.35 0.0521401
0.36 0.0670749
0.37 0.0837602
0.38 0.102018
0.39 0.121587
0.4 0.142121
0.41 0.163194
0.42 0.18425
0.43 0.204683
0.44 0.223869
0.45 0.24116
0.46 0.255904
0.47 0.267465
0.48 0.275254
0.49 0.278749
0.5 0.277521
0.51 0.271245
0.52 0.259327
0.53 0.242171
0.54 0.219933
0.55 0.192928
0.56 0.161625
0.57 0.126639
0.58 0.0887098
0.59 0.0486846
0.6 0.00748569
0.61 -0.0339189
0.62 -0.0744325
0.63 -0.11307
0.64 -0.148969
0.65 -0.18136
0.66 -0.209602
0.67 -0.233214
0.68 -0.25189
0.69 -0.26551
0.7 -0.274149
0.71 -0.278067
0.72 -0.27751
0.73 -0.273241
0.74 -0.266135
0.75 -0.257031
0.76 -0.246822
0.77 -0.236418
0.78 -0.226706
0.79 -0.218512
0.8 -0.212568
0.81 -0.209479
0.82 -0.209831
0.83 -0.213965
0.84 -0.221799
0.85 -0.233229
0.86 -0.247986
0.87 -0.265646
0.88 -0.285657
0.89 -0.307368
0.9 -0.330058
0.91 -0.352974
0.92 -0.375344
0.93 -0.396342
0.94 -0.41539
0.95 -0.431973
0.96 -0.445708
0.97 -0.456352
0.98 -0.463809
0.99 -0.468134
1 -0.469524
1.01 -0.4683
1.02 -0.464887
1.03 -0.459716
1.04 -0.453525
1.05 -0.446899
1.06 -0.440409
1.07 -0.434584
1.08 -0.429883
1.09 -0.42668
1.1 -0.425244
1.11 -0.425735
1.12 -0.428199
1.13 -0.432695
1.14 -0.438929
1.15 -0.446624
1.16 -0.455466
1.17 -0.465111
1.18 -0.475209
1.19 -0.485423
1.2 -0.495458
1.21 -0.505076
1.22 -0.514114
1.23 -0.522456
1.24 -0.530138
1.25 -0.537289
1.26 -0.544093
1.27 -0.550795
1.28 -0.557681
1.29 -0.565058
1.3 -0.573228
1.31 -0.582463
1.32 -0.592986
1.33 -0.605006
1.34 -0.618593
1.35 -0.633626
1.36 -0.649943
1.37 -0.667282
1.38 -0.685288
1.39 -0.70353
1.4 -0.721517
1.41 -0.738729
1.42 -0.754638
1.43 -0.768694
1.44 -0.780319
1.45 -0.789275
1.46 -0.795319
1.47 -0.79833
1.48 -0.798323
1.49 -0.795449
1.5 -0.789994
1.51 -0.782368
1.52 -0.773085
1.53 -0.76274
1.54 -0.75201
1.55 -0.741641
1.56 -0.732284
1.57 -0.724538
1.58 -0.718918
1.59 -0.715833
1.6 -0.715564
1.61 -0.718249
1.62 -0.723881
1.63 -0.732307
1.64 -0.743387
1.65 -0.756519
1.66 -0.771159
1.67 -0.786733
1.68 -0.802639
1.69 -0.818282
1.7 -0.833106
1.71 -0.84662
1.72 -0.858426
1.73 -0.868239
1.74 -0.875772
1.75 -0.881059
1.76 -0.884268
1.77 -0.885611
1.78 -0.885391
1.79 -0.883968
1.8 -0.881735
1.81 -0.879089
1.82 -0.876395
1.83 -0.873964
1.84 -0.872051
1.85 -0.870797
1.86 -0.870186
1.87 -0.870119
1.88 -0.870401
1.89 -0.87076
1.9 -0.870875
1.91 -0.870404
1.92 -0.869022
1.93 -0.866459
1.94 -0.862503
1.95 -0.857054
1.96 -0.85032
1.97 -0.842596
1.98 -0.834352
1.99 -0.826214
2 -0.818954
2.01 -0.813439
2.02 -0.810595
2.03 -0.81134
2.04 -0.816551
2.05 -0.827322
2.06 -0.843725
2.07 -0.86587
2.08 -0.893494
2.09 -0.925913
2.1 -0.96199
2.11 -1.00012
2.12 -1.03825
2.13 -1.07388
2.14 -1.10416
2.15 -1.12508
2.16 -1.13358
2.17 -1.12635
2.18 -1.1001
2.19 -1.05182
2.2 -0.97888
2.21 -0.879194
2.22 -0.751362
2.23 -0.594777
2.24 -0.409714
2.25 -0.195996
2.26 0.0429971
2.27 0.303188
2.28 0.580283
2.29 0.86917
2.3 1.16404
2.31 1.45856
2.32 1.74604
2.33 2.01963
2.34 2.27259
2.35 2.49711
2.36 2.6866
2.37 2.83721
2.38 2.94486
2.39 3.00657
2.4 3.02061
2.41 2.9865
2.42 2.90512
2.43 2.77862
2.44 2.6104
2.45 2.4042
2.46 2.16511
2.47 1.90167
2.48 1.62085
2.49 1.3299
2.5 1.03616
2.51 0.746782
2.52 0.468512
2.53 0.20749
2.54 -0.0309347
2.55 -0.242109
2.56 -0.420482
2.57 -0.566101
2.58 -0.678119
2.59 -0.756806
2.6 -0.803482
2.61 -0.820412
2.62 -0.810675
2.63 -0.778003
2.64 -0.726611
2.65 -0.66101
2.66 -0.585456
2.67 -0.505464
2.68 -0.425362
2.69 -0.349002
2.7 -0.279718
2.71 -0.220248
2.72 -0.172679
2.73 -0.13843
2.74 -0.11826
2.75 -0.112305
2.76 -0.120884
2.77 -0.142488
2.78 -0.17543
2.79 -0.2181
2.8 -0.268737
2.81 -0.325526
2.82 -0.386693
2.83 -0.450582
2.84 -0.51571
2.85 -0.580814
2.86 -0.64479
2.87 -0.706796
2.88 -0.766359
2.89 -0.823142
2.9 -0.876937
2.91 -0.927614
2.92 -0.97506
2.93 -1.01912
2.94 -1.05953
2.95 -1.09591
2.96 -1.12754
2.97 -1.15342
2.98 -1.17281
2.99 -1.18455
3 -1.18735
3.01 -1.17983
3.02 -1.16059
3.03 -1.1283
3.04 -1.08171
3.05 -1.01983
3.06 -0.941744
3.07 -0.84605
3.08 -0.734019
3.09 -0.606212
3.1 -0.463666
3.11 -0.307891
3.12 -0.140858
3.13 0.0350455
3.14 0.217066
3.15 0.402157
3.16 0.587066
3.17 0.767904
3.18 0.941295
3.19 1.10402
3.2 1.25306
3.21 1.38569
3.22 1.49961
3.23 1.59294
3.24 1.66433
3.25 1.713
3.26 1.7387
3.27 1.74045
3.28 1.72008
3.29 1.67954
3.3 1.6207
3.31 1.54578
3.32 1.45726
3.33 1.35784
3.34 1.25032
3.35 1.1375
3.36 1.02217
3.37 0.90706
3.38 0.79486
3.39 0.687688
3.4 0.587377
3.41 0.495435
3.42 0.413032
3.43 0.340993
3.44 0.279809
3.45 0.229652
3.46 0.190403
3.47 0.161953
3.48 0.143889
3.49 0.134823
3.5 0.133807
3.51 0.139808
3.52 0.151744
3.53 0.168528
3.54 0.189099
3.55 0.212459
3.56 0.237697
3.57 0.264023
3.58 0.290754
3.59 0.317343
3.6 0.343475
3.61 0.369005
3.62 0.393953
3.63 0.418508
3.64 0.443012
3.65 0.467949
3.66 0.493928
3.67 0.521655
3.68 0.552168
3.69 0.586165
3.7 0.624447
3.71 0.667782
3.72 0.716851
3.73 0.772205
3.74 0.834224
3.75 0.903081
3.76 0.978706
3.77 1.06076
3.78 1.1489
3.79 1.24183
3.8 1.33813
3.81 1.43619
3.82 1.53415
3.83 1.62992
3.84 1.72122
3.85 1.80564
3.86 1.88071
3.87 1.94399
3.88 1.99237
3.89 2.02358
3.9 2.03629
3.91 2.02895
3.92 2.00046
3.93 1.95014
3.94 1.87782
3.95 1.78386
3.96 1.66914
3.97 1.53504
3.98 1.38302
3.99 1.21531
4 1.03558
4.01 0.846876
4.02 0.652423
4.03 0.455538
4.04 0.259526
4.05 0.0675846
4.06 -0.117299
4.07 -0.292431
4.08 -0.455305
4.09 -0.60312
4.1 -0.735426
4.11 -0.851424
4.12 -0.950827
4.13 -1.03384
4.14 -1.10112
4.15 -1.15373
4.16 -1.19308
4.17 -1.22082
4.18 -1.2388
4.19 -1.24846
4.2 -1.25244
4.21 -1.25256
4.22 -1.25041
4.23 -1.24733
4.24 -1.24438
4.25 -1.24224
4.26 -1.24126
4.27 -1.24141
4.28 -1.24232
4.29 -1.24324
4.3 -1.2431
4.31 -1.24068
4.32 -1.23464
4.33 -1.22357
4.34 -1.20609
4.35 -1.18088
4.36 -1.14681
4.37 -1.10294
4.38 -1.04861
4.39 -0.982957
4.4 -0.906128
4.41 -0.818916
4.42 -0.722078
4.43 -0.616704
4.44 -0.504189
4.45 -0.386197
4.46 -0.264609
4.47 -0.141477
4.48 -0.0189606
4.49 0.100572
4.5 0.214589
4.51 0.321135
4.52 0.418228
4.53 0.50406
4.54 0.577039
4.55 0.635822
4.56 0.679333
4.57 0.706783
4.58 0.717675
4.59 0.711566
4.6 0.68769
4.61 0.647599
4.62 0.591963
4.63 0.521688
4.64 0.437887
4.65 0.341856
4.66 0.235047
4.67 0.119035
4.68 -0.00450674
4.69 -0.133838
4.7 -0.26736
4.71 -0.402845
4.72 -0.538529
4.73 -0.67271
4.74 -0.803763
4.75 -0.93017
4.76 -1.05054
4.77 -1.16364
4.78 -1.2684
4.79 -1.36392
4.8 -1.44885
4.81 -1.52315
4.82 -1.58675
4.83 -1.63961
4.84 -1.6819
4.85 -1.71393
4.86 -1.73621
4.87 -1.74935
4.88 -1.75408
4.89 -1.75119
4.9 -1.74124
4.91 -1.72525
4.92 -1.70423
4.93 -1.67889
4.94 -1.64983
4.95 -1.61755
4.96 -1.58236
4.97 -1.54444
4.98 -1.50379
4.99 -1.46025
5 -1.41341
5.01 -1.3627
5.02 -1.30773
5.03 -1.24789
5.04 -1.18252
5.05 -1.111
5.06 -1.03276
5.07 -0.947319
5.08 -0.854324
5.09 -0.753593
5.1 -0.645013
5.11 -0.528467
5.12 -0.404948
5.13 -0.275162
5.14 -0.14003
5.15 -0.000668727
5.16 0.141635
5.17 0.285451
5.18 0.429249
5.19 0.571433
5.2 0.710387
5.21 0.843998
5.22 0.971038
5.23 1.09011
5.24 1.19995
5.25 1.29948
5.26 1.38779
5.27 1.46418
5.28 1.52816
5.29 1.57943
5.3 1.61788
5.31 1.64276
5.32 1.65497
5.33 1.65512
5.34 1.64368
5.35 1.62122
5.36 1.58836
5.37 1.54573
5.38 1.49401
5.39 1.43382
5.4 1.3658
5.41 1.29023
5.42 1.20784
5.43 1.11943
5.44 1.02551
5.45 0.926579
5.46 0.823157
5.47 0.715756
5.48 0.604906
5.49 0.491171
5.5 0.375144
5.51 0.257429
5.52 0.138765
5.53 0.0199552
5.54 -0.0982425
5.55 -0.215041
5.56 -0.329639
5.57 -0.441228
5.58 -0.54901
5.59 -0.652208
5.6 -0.750081
5.61 -0.841817
5.62 -0.926418
5.63 -1.00372
5.64 -1.07326
5.65 -1.13462
5.66 -1.18749
5.67 -1.23164
5.68 -1.26689
5.69 -1.29316
5.7 -1.31041
5.71 -1.31869
5.72 -1.31739
5.73 -1.30741
5.74 -1.28897
5.75 -1.26233
5.76 -1.22782
5.77 -1.18582
5.78 -1.13678
5.79 -1.0812
5.8 -1.01966
5.81 -0.952821
5.82 -0.881149
5.83 -0.805782
5.84 -0.727687
5.85 -0.647842
5.86 -0.567288
5.87 -0.48712
5.88 -0.408468
5.89 -0.332483
5.9 -0.260313
5.91 -0.193078
5.92 -0.132212
5.93 -0.0786701
5.94 -0.0331315
5.95 0.00366865
5.96 0.0311462
5.97 0.0488847
5.98 0.0566476
5.99 0.0543856
6 0.0422396
6.01 0.0205379
6.02 -0.0105066
6.03 -0.0502198
6.04 -0.0973253
6.05 -0.150837
6.06 -0.209662
6.07 -0.272622
6.08 -0.338477
6.09 -0.405945
6.1 -0.473722
6.11 -0.540499
6.12 -0.604907
6.13 -0.665395
6.14 -0.720877
6.15 -0.770155
6.16 -0.812069
6.17 -0.845509
6.18 -0.869414
6.19 -0.882773
6.2 -0.884639
6.21 -0.874128
6.22 -0.850388
6.23 -0.811606
6.24 -0.758246
6.25 -0.689861
6.26 -0.606158
6.27 -0.507026
6.28 -0.392558
6.29 -0.263075
6.3 -0.119145
6.31 0.0383961
6.32 0.208441
6.33 0.390254
6.34 0.581374
6.35 0.779693
6.36 0.983013
6.37 1.18895
6.38 1.39499
6.39 1.5985
6.4 1.79686
6.41 1.98745
6.42 2.1678
6.43 2.33481
6.44 2.48656
6.45 2.62172
6.46 2.73901
6.47 2.83751
6.48 2.91677
6.49 2.97679
6.5 3.01801
6.51 3.04131
6.52 3.04795
6.53 3.03907
6.54 3.01671
6.55 2.98367
6.56 2.9422
6.57 2.89459
6.58 2.84305
6.59 2.78964
6.6 2.7362
6.61 2.68428
6.62 2.63507
6.63 2.58947
6.64 2.54801
6.65 2.51034
6.66 2.47594
6.67 2.44388
6.68 2.41292
6.69 2.38154
6.7 2.34803
6.71 2.31052
6.72 2.26716
6.73 2.21605
6.74 2.1547
6.75 2.08228
6.76 1.99764
6.77 1.9
6.78 1.78894
6.79 1.6645
6.8 1.5271
6.81 1.37761
6.82 1.2173
6.83 1.04779
6.84 0.8707
6.85 0.68887
6.86 0.504825
6.87 0.321115
6.88 0.140327
6.89 -0.034988
6.9 -0.202383
6.91 -0.359577
6.92 -0.504513
6.93 -0.6354
6.94 -0.74984
6.95 -0.847038
6.96 -0.926691
6.97 -0.988422
6.98 -1.0322
6.99 -1.05833
7 -1.06743
7.01 -1.06039
7.02 -1.03839
7.03 -1.00279
7.04 -0.954772
7.05 -0.896224
7.06 -0.829518
7.07 -0.756596
7.08 -0.679446
7.09 -0.60007
7.1 -0.520462
7.11 -0.442579
7.12 -0.368314
7.13 -0.299476
7.14 -0.237964
7.15 -0.185809
7.16 -0.143957
7.17 -0.113615
7.18 -0.0957914
7.19 -0.0912813
7.2 -0.100648
7.21 -0.12421
7.22 -0.16203
7.23 -0.213908
7.24 -0.279464
7.25 -0.358772
7.26 -0.449779
7.27 -0.551218
7.28 -0.661608
7.29 -0.779282
7.3 -0.902421
7.31 -1.02909
7.32 -1.15727
7.33 -1.28493
7.34 -1.41002
7.35 -1.53011
7.36 -1.64347
7.37 -1.74844
7.38 -1.84348
7.39 -1.92726
7.4 -1.9987
7.41 -2.05691
7.42 -2.10129
7.43 -2.13146
7.44 -2.14729
7.45 -2.14806
7.46 -2.13455
7.47 -2.10762
7.48 -2.0679
7.49 -2.01615
7.5 -1.95321
7.51 -1.87997
7.52 -1.79739
7.53 -1.7064
7.54 -1.60798
7.55 -1.50285
7.56 -1.39204
7.57 -1.27673
7.58 -1.15783
7.59 -1.03625
7.6 -0.912889
7.61 -0.788671
7.62 -0.664547
7.63 -0.541504
7.64 -0.420574
7.65 -0.302939
7.66 -0.189988
7.67 -0.0827056
7.68 0.0176993
7.69 0.110003
7.7 0.192988
7.71 0.26546
7.72 0.326285
7.73 0.374409
7.74 0.40889
7.75 0.428808
7.76 0.432504
7.77 0.420663
7.78 0.393114
7.79 0.34992
7.8 0.291389
7.81 0.218076
7.82 0.130775
7.83 0.0305179
7.84 -0.0814476
7.85 -0.203676
7.86 -0.335061
7.87 -0.47312
7.88 -0.615901
7.89 -0.761458
7.9 -0.907812
7.91 -1.05299
7.92 -1.19508
7.93 -1.3322
7.94 -1.46262
7.95 -1.58472
7.96 -1.69639
7.97 -1.79659
7.98 -1.88452
7.99 -1.95934
8 -2.02045
8.01 -2.06747
8.02 -2.10025
8.03 -2.11887
8.04 -2.12363
8.05 -2.11506
8.06 -2.09339
8.07 -2.05971
8.08 -2.01566
8.09 -1.96252
8.1 -1.90172
8.11 -1.83478
8.12 -1.76331
8.13 -1.68894
8.14 -1.61333
8.15 -1.53809
8.16 -1.46487
8.17 -1.39538
8.18 -1.33077
8.19 -1.27215
8.2 -1.22042
8.21 -1.17625
8.22 -1.14005
8.23 -1.11195
8.24 -1.09181
8.25 -1.07921
8.26 -1.07349
8.27 -1.07396
8.28 -1.07886
8.29 -1.08674
8.3 -1.09595
8.31 -1.10472
8.32 -1.11118
8.33 -1.11339
8.34 -1.10942
8.35 -1.09737
8.36 -1.07541
8.37 -1.04082
8.38 -0.992732
8.39 -0.929862
8.4 -0.851031
8.41 -0.755274
8.42 -0.641842
8.43 -0.510202
8.44 -0.360037
8.45 -0.191243
8.46 -0.00391545
8.47 0.202712
8.48 0.427419
8.49 0.66911
8.5 0.92693
8.51 1.19986
8.52 1.4867
8.53 1.78611
8.54 2.09655
8.55 2.41632
8.56 2.7435
8.57 3.07614
8.58 3.4116
8.59 3.74716
8.6 4.08003
8.61 4.40727
8.62 4.72575
8.63 5.03217
8.64 5.32316
8.65 5.59523
8.66 5.84491
8.67 6.06798
8.68 6.26
8.69 6.41934
8.7 6.54323
8.71 6.62927
8.72 6.67547
8.73 6.68039
8.74 6.64311
8.75 6.56334
8.76 6.44144
8.77 6.27794
8.78 6.07237
8.79 5.83002
8.8 5.55387
8.81 5.24743
8.82 4.91461
8.83 4.5597
8.84 4.18722
8.85 3.80185
8.86 3.40827
8.87 3.0111
8.88 2.61515
8.89 2.22475
8.9 1.84354
8.91 1.47474
8.92 1.12103
8.93 0.784521
8.94 0.466791
8.95 0.168836
8.96 -0.108884
8.97 -0.366406
8.98 -0.603058
8.99 -0.820616
9 -1.02069
9.01 -1.20469
9.02 -1.37412
9.03 -1.53051
9.04 -1.67537
9.05 -1.81006
9.06 -1.93578
9.07 -2.0535
9.08 -2.16364
9.09 -2.26674
9.1 -2.36317
9.11 -2.45282
9.12 -2.53532
9.13 -2.61014
9.14 -2.67658
9.15 -2.73387
9.16 -2.78119
9.17 -2.81773
9.18 -2.84242
9.19 -2.85429
9.2 -2.85355
9.21 -2.83995
9.22 -2.81351
9.23 -2.77445
9.24 -2.72321
9.25 -2.66048
9.26 -2.58715
9.27 -2.50429
9.28 -2.41304
9.29 -2.3145
9.3 -2.21069
9.31 -2.10309
9.32 -1.99321
9.33 -1.88253
9.34 -1.77246
9.35 -1.66435
9.36 -1.55944
9.37 -1.45884
9.38 -1.36357
9.39 -1.27501
9.4 -1.19348
9.41 -1.11952
9.42 -1.05355
9.43 -0.995908
9.44 -0.946771
9.45 -0.906224
9.46 -0.874236
9.47 -0.850671
9.48 -0.83529
9.49 -0.828215
9.5 -0.828609
9.51 -0.835755
9.52 -0.848987
9.53 -0.867537
9.54 -0.890544
9.55 -0.91705
9.56 -0.94602
9.57 -0.976342
9.58 -1.00685
9.59 -1.03623
9.6 -1.06315
9.61 -1.08643
9.62 -1.1049
9.63 -1.11748
9.64 -1.12317
9.65 -1.12109
9.66 -1.11054
9.67 -1.09097
9.68 -1.06206
9.69 -1.02337
9.7 -0.974849
9.71 -0.917341
9.72 -0.851426
9.73 -0.777888
9.74 -0.697698
9.75 -0.61199
9.76 -0.522035
9.77 -0.429203
9.78 -0.334936
9.79 -0.240725
9.8 -0.148245
9.81 -0.0588851
9.82 0.0260388
9.83 0.105328
9.84 0.177931
9.85 0.242966
9.86 0.299741
9.87 0.347764
9.88 0.386755
9.89 0.416649
9.9 0.436903
9.91 0.448635
9.92 0.452455
9.93 0.449141
9.94 0.439637
9.95 0.425039
9.96 0.406569
9.97 0.385556
9.98 0.363414
9.99 0.341619
10 0.321898
10.01 0.305817
10.02 0.294835
10.03 0.290397
10.04 0.293867
10.05 0.306505
10.06 0.329432
10.07 0.363606
10.08 0.409793
10.09 0.468538
10.1 0.540766
10.11 0.62629
10.12 0.724362
10.13 0.834366
10.14 0.955372
10.15 1.08614
10.16 1.22514
10.17 1.37051
10.18 1.52018
10.19 1.67178
10.2 1.82266
10.21 1.96977
10.22 2.11033
10.23 2.24149
10.24 2.36045
10.25 2.46447
10.26 2.551
10.27 2.61772
10.28 2.66257
10.29 2.68387
10.3 2.67987
10.31 2.64838
10.32 2.59074
10.33 2.5071
10.34 2.39809
10.35 2.26484
10.36 2.10889
10.37 1.93224
10.38 1.73722
10.39 1.52649
10.4 1.30297
10.41 1.06923
10.42 0.829501
10.43 0.587038
10.44 0.345027
10.45 0.106537
10.46 -0.125554
10.47 -0.348612
10.48 -0.560301
10.49 -0.758619
10.5 -0.941928
10.51 -1.10784
10.52 -1.25629
10.53 -1.38712
10.54 -1.5003
10.55 -1.59613
10.56 -1.6752
10.57 -1.73835
10.58 -1.78666
10.59 -1.82135
10.6 -1.84373
10.61 -1.85472
10.62 -1.85603
10.63 -1.84932
10.64 -1.83579
10.65 -1.81653
10.66 -1.79243
10.67 -1.76422
10.68 -1.7324
10.69 -1.69729
10.7 -1.65898
10.71 -1.61724
10.72 -1.57171
10.73 -1.52207
10.74 -1.46776
10.75 -1.40812
10.76 -1.34245
10.77 -1.27006
10.78 -1.19029
10.79 -1.10258
10.8 -1.00649
10.81 -0.901577
10.82 -0.787364
10.83 -0.664593
10.84 -0.533694
10.85 -0.395357
10.86 -0.250533
10.87 -0.100436
10.88 0.0534732
10.89 0.209504
10.9 0.36576
10.91 0.52017
10.92 0.67003
10.93 0.813219
10.94 0.947419
10.95 1.07034
10.96 1.17976
10.97 1.2736
10.98 1.34996
10.99 1.40716
11 1.44379
11.01 1.45875
11.02 1.44971
11.03 1.41746
11.04 1.36234
11.05 1.28476
11.06 1.18544
11.07 1.06548
11.08 0.92629
11.09 0.769571
11.1 0.597274
11.11 0.41156
11.12 0.214313
11.13 0.00847042
11.14 -0.203117
11.15 -0.417917
11.16 -0.633432
11.17 -0.847242
11.18 -1.05704
11.19 -1.26065
11.2 -1.45608
11.21 -1.64153
11.22 -1.81494
11.23 -1.97463
11.24 -2.12003
11.25 -2.25022
11.26 -2.36447
11.27 -2.46226
11.28 -2.54323
11.29 -2.60718
11.3 -2.65406
11.31 -2.68392
11.32 -2.69662
11.33 -2.69174
11.34 -2.67068
11.35 -2.63385
11.36 -2.58169
11.37 -2.51471
11.38 -2.43341
11.39 -2.33836
11.4 -2.23012
11.41 -2.10927
11.42 -1.97639
11.43 -1.83129
11.44 -1.67556
11.45 -1.50984
11.46 -1.33481
11.47 -1.15117
11.48 -0.959642
11.49 -0.760953
11.5 -0.555872
11.51 -0.345195
11.52 -0.12975
11.53 0.089802
11.54 0.312245
11.55 0.536557
11.56 0.761706
11.57 0.986596
11.58 1.21006
11.59 1.43086
11.6 1.64769
11.61 1.85914
11.62 2.06377
11.63 2.2595
11.64 2.44478
11.65 2.61822
11.66 2.77816
11.67 2.92294
11.68 3.05093
11.69 3.16055
11.7 3.25033
11.71 3.31891
11.72 3.36509
11.73 3.38698
11.74 3.38356
11.75 3.35544
11.76 3.30243
11.77 3.22469
11.78 3.12267
11.79 2.99714
11.8 2.84919
11.81 2.68024
11.82 2.49196
11.83 2.28599
11.84 2.06411
11.85 1.82975
11.86 1.58543
11.87 1.33374
11.88 1.07731
11.89 0.818739
11.9 0.560582
11.91 0.305282
11.92 0.0551439
11.93 -0.187651
11.94 -0.420342
11.95 -0.641825
11.96 -0.850619
11.97 -1.04546
11.98 -1.22528
11.99 -1.3892
12 -1.53652
12.01 -1.66668
12.02 -1.77922
12.03 -1.8738
12.04 -1.94886
12.05 -2.00526
12.06 -2.04304
12.07 -2.06208
12.08 -2.06228
12.09 -2.04358
12.1 -2.00599
12.11 -1.94956
12.12 -1.87445
12.13 -1.78093
12.14 -1.66846
12.15 -1.5382
12.16 -1.39148
12.17 -1.22937
12.18 -1.05317
12.19 -0.864443
12.2 -0.665021
12.21 -0.456974
12.22 -0.242609
12.23 -0.0244404
12.24 0.194776
12.25 0.411897
12.26 0.623995
12.27 0.828176
12.28 1.02161
12.29 1.20158
12.3 1.36557
12.31 1.51129
12.32 1.63679
12.33 1.74041
12.34 1.82038
12.35 1.87492
12.36 1.9051
12.37 1.91102
12.38 1.89318
12.39 1.85249
12.4 1.7902
12.41 1.70789
12.42 1.60738
12.43 1.4907
12.44 1.35995
12.45 1.21677
12.46 1.0645
12.47 0.905348
12.48 0.741477
12.49 0.574897
12.5 0.407456
12.51 0.240816
12.52 0.076439
12.53 -0.0844153
12.54 -0.240683
12.55 -0.391031
12.56 -0.535039
12.57 -0.672185
12.58 -0.801982
12.59 -0.923995
12.6 -1.03781
12.61 -1.143
12.62 -1.2391
12.63 -1.32557
12.64 -1.4018
12.65 -1.46643
12.66 -1.51892
12.67 -1.55869
12.68 -1.5848
12.69 -1.59629
12.7 -1.59223
12.71 -1.57172
12.72 -1.53394
12.73 -1.47824
12.74 -1.40413
12.75 -1.31059
12.76 -1.19764
12.77 -1.06645
12.78 -0.917708
12.79 -0.752485
12.8 -0.572191
12.81 -0.37859
12.82 -0.173782
12.83 0.0398224
12.84 0.259539
12.85 0.482452
12.86 0.705155
12.87 0.924267
12.88 1.13654
12.89 1.33875
12.9 1.5278
12.91 1.70076
12.92 1.85492
12.93 1.98791
12.94 2.09766
12.95 2.18233
12.96 2.23891
12.97 2.26859
12.98 2.27116
12.99 2.24688
13 2.19644
13.01 2.12099
13.02 2.02202
13.03 1.9014
13.04 1.76127
13.05 1.60402
13.06 1.43134
13.07 1.2471
13.08 1.05414
13.09 0.855212
13.1 0.652968
13.11 0.449962
13.12 0.248595
13.13 0.0510853
13.14 -0.140559
13.15 -0.32455
13.16 -0.498715
13.17 -0.661939
13.18 -0.81338
13.19 -0.952169
13.2 -1.07762
13.21 -1.18921
13.22 -1.28654
13.23 -1.36934
13.24 -1.43742
13.25 -1.49067
13.26 -1.52843
13.27 -1.55072
13.28 -1.55821
13.29 -1.55102
13.3 -1.52935
13.31 -1.49345
13.32 -1.4437
13.33 -1.38058
13.34 -1.30473
13.35 -1.21692
13.36 -1.11788
13.37 -1.00862
13.38 -0.891158
13.39 -0.767118
13.4 -0.638317
13.41 -0.506757
13.42 -0.374594
13.43 -0.244105
13.44 -0.117644
13.45 0.00240499
13.46 0.113579
13.47 0.212733
13.48 0.29845
13.49 0.36888
13.5 0.42246
13.51 0.457961
13.52 0.474533
13.53 0.471743
