# xPDFsuite Configuration #
[PDF]
wavelength = 0.1
dataformat = QA
inputfile = x0_20171023-033251__156.0K_001.chi
backgroundfile = kapton_1mmOD_20171019-202628_0ea754_001_fit2d.chi
mode = xray
bgscale = 1.0
composition = SrFe2As2
outputtype = gr
qmaxinst = 25.0
qmin = 0.4
qmax = 25.0
rmax = 100.0
rmin = 0.0
rstep = 0.01
rpoly = 0.7

[Misc]
inputdir = /home/ben/scatteringdata/2017_03_NOMAD-C4/xray/OctoberBeamtime/x0/x0_8/chi_fit2d
savedir = /home/ben/scatteringdata/2017_03_NOMAD-C4/xray/OctoberBeamtime/x0/x0_8/pdf_fit2d
backgroundfilefull = /home/ben/scatteringdata/2017_03_NOMAD-C4/xray/OctoberBeamtime/kapton_1mmOD_20171019-202628_0ea754_001_fit2d.chi

#### start data
#S 1
#L r($\AA$)  G($\AA^{-2}$)
0 0
0.01 0.000341045
0.02 0.000659453
0.03 0.000935581
0.04 0.00115227
0.05 0.00129568
0.06 0.00135587
0.07 0.00132692
0.08 0.00120684
0.09 0.000996971
0.1 0.000701285
0.11 0.000320601
0.12 -0.000134081
0.13 -0.000655143
0.14 -0.00123678
0.15 -0.00187361
0.16 -0.00256004
0.17 -0.00328894
0.18 -0.00404976
0.19 -0.00482605
0.2 -0.0055925
0.21 -0.00630677
0.22 -0.00690943
0.23 -0.00732721
0.24 -0.00746426
0.25 -0.00720272
0.26 -0.00640297
0.27 -0.00490532
0.28 -0.00253347
0.29 0.000900153
0.3 0.00558738
0.31 0.0117702
0.32 0.0196603
0.33 0.0293259
0.34 0.040865
0.35 0.0543227
0.36 0.0696806
0.37 0.0868468
0.38 0.105649
0.39 0.125831
0.4 0.147048
0.41 0.168875
0.42 0.190758
0.43 0.212077
0.44 0.232201
0.45 0.25047
0.46 0.266215
0.47 0.278785
0.48 0.287572
0.49 0.292031
0.5 0.291711
0.51 0.286266
0.52 0.275065
0.53 0.258495
0.54 0.236686
0.55 0.20993
0.56 0.178669
0.57 0.143493
0.58 0.105116
0.59 0.0643581
0.6 0.0221146
0.61 -0.0206738
0.62 -0.0629647
0.63 -0.103783
0.64 -0.142289
0.65 -0.177734
0.66 -0.209501
0.67 -0.237125
0.68 -0.260311
0.69 -0.278944
0.7 -0.293091
0.71 -0.302995
0.72 -0.308897
0.73 -0.311499
0.74 -0.311606
0.75 -0.30998
0.76 -0.307426
0.77 -0.304751
0.78 -0.302727
0.79 -0.302056
0.8 -0.303337
0.81 -0.307041
0.82 -0.31359
0.83 -0.323172
0.84 -0.33561
0.85 -0.350691
0.86 -0.368055
0.87 -0.387206
0.88 -0.407545
0.89 -0.428398
0.9 -0.449051
0.91 -0.468782
0.92 -0.486857
0.93 -0.502501
0.94 -0.515309
0.95 -0.524894
0.96 -0.531005
0.97 -0.533542
0.98 -0.532552
0.99 -0.528228
1 -0.520893
1.01 -0.51098
1.02 -0.499006
1.03 -0.485492
1.04 -0.471204
1.05 -0.456741
1.06 -0.442666
1.07 -0.429474
1.08 -0.417576
1.09 -0.407283
1.1 -0.398793
1.11 -0.392194
1.12 -0.387465
1.13 -0.384593
1.14 -0.383255
1.15 -0.383163
1.16 -0.384019
1.17 -0.385524
1.18 -0.387402
1.19 -0.389419
1.2 -0.391412
1.21 -0.393294
1.22 -0.395069
1.23 -0.396843
1.24 -0.398832
1.25 -0.401311
1.26 -0.404613
1.27 -0.409104
1.28 -0.415155
1.29 -0.423118
1.3 -0.433294
1.31 -0.445908
1.32 -0.461085
1.33 -0.478923
1.34 -0.499291
1.35 -0.521784
1.36 -0.545987
1.37 -0.571363
1.38 -0.59728
1.39 -0.623034
1.4 -0.64788
1.41 -0.67107
1.42 -0.691891
1.43 -0.70962
1.44 -0.723536
1.45 -0.733453
1.46 -0.739163
1.47 -0.740633
1.48 -0.738017
1.49 -0.731647
1.5 -0.722022
1.51 -0.709785
1.52 -0.695697
1.53 -0.680595
1.54 -0.665421
1.55 -0.651106
1.56 -0.638458
1.57 -0.628183
1.58 -0.620856
1.59 -0.61689
1.6 -0.61652
1.61 -0.619792
1.62 -0.626563
1.63 -0.636514
1.64 -0.64932
1.65 -0.664157
1.66 -0.680297
1.67 -0.697002
1.68 -0.713546
1.69 -0.729252
1.7 -0.74354
1.71 -0.755953
1.72 -0.766191
1.73 -0.774125
1.74 -0.779694
1.75 -0.783228
1.76 -0.785202
1.77 -0.786155
1.78 -0.786715
1.79 -0.787556
1.8 -0.789351
1.81 -0.792725
1.82 -0.798212
1.83 -0.806209
1.84 -0.817058
1.85 -0.830797
1.86 -0.847108
1.87 -0.865597
1.88 -0.885695
1.89 -0.90669
1.9 -0.927768
1.91 -0.948063
1.92 -0.966718
1.93 -0.982943
1.94 -0.995993
1.95 -1.00523
1.96 -1.01064
1.97 -1.01229
1.98 -1.01052
1.99 -1.00596
2 -0.99948
2.01 -0.992168
2.02 -0.985268
2.03 -0.980103
2.04 -0.978016
2.05 -0.980597
2.06 -0.988553
2.07 -1.0025
2.08 -1.02266
2.09 -1.04874
2.1 -1.07993
2.11 -1.11482
2.12 -1.15144
2.13 -1.18727
2.14 -1.21927
2.15 -1.24322
2.16 -1.25551
2.17 -1.25233
2.18 -1.22981
2.19 -1.18433
2.2 -1.11265
2.21 -1.01211
2.22 -0.880785
2.23 -0.717642
2.24 -0.522648
2.25 -0.295253
2.26 -0.038958
2.27 0.241878
2.28 0.5426
2.29 0.857573
2.3 1.18032
2.31 1.5037
2.32 1.82014
2.33 2.12183
2.34 2.40104
2.35 2.64883
2.36 2.8576
2.37 3.02279
2.38 3.13966
2.39 3.20473
2.4 3.21594
2.41 3.17271
2.42 3.07601
2.43 2.92831
2.44 2.73354
2.45 2.49608
2.46 2.22187
2.47 1.92077
2.48 1.60089
2.49 1.27068
2.5 0.938676
2.51 0.61319
2.52 0.302063
2.53 0.0124085
2.54 -0.2496
2.55 -0.47861
2.56 -0.668192
2.57 -0.818626
2.58 -0.929084
2.59 -1.00006
2.6 -1.03331
2.61 -1.03169
2.62 -0.999019
2.63 -0.939909
2.64 -0.859517
2.65 -0.763347
2.66 -0.656687
2.67 -0.546126
2.68 -0.436887
2.69 -0.333609
2.7 -0.240293
2.71 -0.160201
2.72 -0.095794
2.73 -0.0487047
2.74 -0.0197531
2.75 -0.00898976
2.76 -0.0167144
2.77 -0.0409158
2.78 -0.0793823
2.79 -0.130008
2.8 -0.190505
2.81 -0.258526
2.82 -0.331783
2.83 -0.408146
2.84 -0.485721
2.85 -0.562904
2.86 -0.638303
2.87 -0.710899
2.88 -0.780184
2.89 -0.845835
2.9 -0.90773
2.91 -0.965874
2.92 -1.02032
2.93 -1.07111
2.94 -1.11816
2.95 -1.16124
2.96 -1.19976
2.97 -1.23277
2.98 -1.2595
2.99 -1.27867
3 -1.2888
3.01 -1.28822
3.02 -1.27518
3.03 -1.24791
3.04 -1.20473
3.05 -1.14413
3.06 -1.06468
3.07 -0.964242
3.08 -0.843877
3.09 -0.703797
3.1 -0.544791
3.11 -0.368246
3.12 -0.176142
3.13 0.0289703
3.14 0.244023
3.15 0.465497
3.16 0.689515
3.17 0.911504
3.18 1.12699
3.19 1.33173
3.2 1.52163
3.21 1.6929
3.22 1.84211
3.23 1.96637
3.24 2.06334
3.25 2.13137
3.26 2.16951
3.27 2.17578
3.28 2.15195
3.29 2.10007
3.3 2.02218
3.31 1.92086
3.32 1.79924
3.33 1.66082
3.34 1.50941
3.35 1.34898
3.36 1.18359
3.37 1.01737
3.38 0.854555
3.39 0.698683
3.4 0.552898
3.41 0.419907
3.42 0.301921
3.43 0.200617
3.44 0.117118
3.45 0.0519824
3.46 0.00522086
3.47 -0.0232201
3.48 -0.0340234
3.49 -0.0296626
3.5 -0.0119842
3.51 0.016897
3.52 0.0546787
3.53 0.0989559
3.54 0.147306
3.55 0.197373
3.56 0.246948
3.57 0.293994
3.58 0.33644
3.59 0.373205
3.6 0.403407
3.61 0.426592
3.62 0.442743
3.63 0.452279
3.64 0.45604
3.65 0.455253
3.66 0.451486
3.67 0.44659
3.68 0.442871
3.69 0.442624
3.7 0.448068
3.71 0.461354
3.72 0.484463
3.73 0.519112
3.74 0.566676
3.75 0.628101
3.76 0.703849
3.77 0.793841
3.78 0.898186
3.79 1.01492
3.8 1.14183
3.81 1.27648
3.82 1.41592
3.83 1.55683
3.84 1.69555
3.85 1.82825
3.86 1.95098
3.87 2.05984
3.88 2.15016
3.89 2.21832
3.9 2.26205
3.91 2.27898
3.92 2.26738
3.93 2.2262
3.94 2.15516
3.95 2.05473
3.96 1.92617
3.97 1.77143
3.98 1.59259
3.99 1.3928
4 1.17712
4.01 0.949724
4.02 0.715011
4.03 0.47745
4.04 0.241452
4.05 0.0112287
4.06 -0.209326
4.07 -0.416755
4.08 -0.607888
4.09 -0.779213
4.1 -0.930329
4.11 -1.06038
4.12 -1.16916
4.13 -1.25713
4.14 -1.3253
4.15 -1.37519
4.16 -1.40875
4.17 -1.4282
4.18 -1.43598
4.19 -1.43407
4.2 -1.42582
4.21 -1.41352
4.22 -1.3992
4.23 -1.38454
4.24 -1.37083
4.25 -1.35892
4.26 -1.34919
4.27 -1.34157
4.28 -1.33557
4.29 -1.33028
4.3 -1.32428
4.31 -1.31604
4.32 -1.30389
4.33 -1.28608
4.34 -1.26088
4.35 -1.22669
4.36 -1.18209
4.37 -1.12594
4.38 -1.05742
4.39 -0.975519
4.4 -0.880406
4.41 -0.773049
4.42 -0.654388
4.43 -0.525778
4.44 -0.38895
4.45 -0.245967
4.46 -0.0991715
4.47 0.0488866
4.48 0.195515
4.49 0.337739
4.5 0.472383
4.51 0.59704
4.52 0.709235
4.53 0.806721
4.54 0.88753
4.55 0.950018
4.56 0.992901
4.57 1.01528
4.58 1.01663
4.59 0.996568
4.6 0.954321
4.61 0.892061
4.62 0.810879
4.63 0.71218
4.64 0.59765
4.65 0.469211
4.66 0.328975
4.67 0.179197
4.68 0.0222259
4.69 -0.139548
4.7 -0.303747
4.71 -0.467697
4.72 -0.629191
4.73 -0.786176
4.74 -0.936781
4.75 -1.07936
4.76 -1.21248
4.77 -1.33501
4.78 -1.44606
4.79 -1.54501
4.8 -1.63072
4.81 -1.70372
4.82 -1.76444
4.83 -1.81331
4.84 -1.85093
4.85 -1.87808
4.86 -1.8956
4.87 -1.90443
4.88 -1.90553
4.89 -1.89985
4.9 -1.88802
4.91 -1.87101
4.92 -1.84965
4.93 -1.82444
4.94 -1.79571
4.95 -1.76363
4.96 -1.72817
4.97 -1.68916
4.98 -1.64628
4.99 -1.59907
5 -1.54682
5.01 -1.48875
5.02 -1.4245
5.03 -1.35346
5.04 -1.27512
5.05 -1.18904
5.06 -1.09495
5.07 -0.992729
5.08 -0.882441
5.09 -0.764354
5.1 -0.63884
5.11 -0.50633
5.12 -0.368217
5.13 -0.225588
5.14 -0.0796768
5.15 0.0681681
5.16 0.216515
5.17 0.363888
5.18 0.508801
5.19 0.649799
5.2 0.785485
5.21 0.913918
5.22 1.03439
5.23 1.14589
5.24 1.24755
5.25 1.33867
5.26 1.41871
5.27 1.48728
5.28 1.54414
5.29 1.5892
5.3 1.62246
5.31 1.64329
5.32 1.65249
5.33 1.65054
5.34 1.63776
5.35 1.61453
5.36 1.58124
5.37 1.53832
5.38 1.48621
5.39 1.42536
5.4 1.35627
5.41 1.27907
5.42 1.19451
5.43 1.10342
5.44 1.00639
5.45 0.904098
5.46 0.797231
5.47 0.686522
5.48 0.572737
5.49 0.456668
5.5 0.339122
5.51 0.220919
5.52 0.102951
5.53 -0.0139709
5.54 -0.129099
5.55 -0.241729
5.56 -0.351207
5.57 -0.456938
5.58 -0.558385
5.59 -0.65507
5.6 -0.74657
5.61 -0.832403
5.62 -0.91193
5.63 -0.985203
5.64 -1.05193
5.65 -1.11182
5.66 -1.16457
5.67 -1.20986
5.68 -1.24736
5.69 -1.27673
5.7 -1.29759
5.71 -1.30957
5.72 -1.31155
5.73 -1.30395
5.74 -1.28651
5.75 -1.25908
5.76 -1.2216
5.77 -1.17416
5.78 -1.11702
5.79 -1.0506
5.8 -0.975548
5.81 -0.892691
5.82 -0.802697
5.83 -0.707294
5.84 -0.608028
5.85 -0.506497
5.86 -0.404412
5.87 -0.303559
5.88 -0.205748
5.89 -0.112771
5.9 -0.0263491
5.91 0.0519134
5.92 0.120016
5.93 0.176827
5.94 0.221695
5.95 0.253938
5.96 0.273151
5.97 0.279211
5.98 0.272268
5.99 0.252731
6 0.221242
6.01 0.178649
6.02 0.125653
6.03 0.0634361
6.04 -0.00628358
6.05 -0.0822066
6.06 -0.163018
6.07 -0.247414
6.08 -0.33412
6.09 -0.421904
6.1 -0.50958
6.11 -0.596003
6.12 -0.67999
6.13 -0.760188
6.14 -0.835649
6.15 -0.905237
6.16 -0.967769
6.17 -1.022
6.18 -1.06662
6.19 -1.10024
6.2 -1.12141
6.21 -1.12865
6.22 -1.12041
6.23 -1.09383
6.24 -1.04881
6.25 -0.984146
6.26 -0.898885
6.27 -0.792356
6.28 -0.664248
6.29 -0.514666
6.3 -0.344182
6.31 -0.153867
6.32 0.0546802
6.33 0.28027
6.34 0.519079
6.35 0.767716
6.36 1.0226
6.37 1.27986
6.38 1.5354
6.39 1.78504
6.4 2.02464
6.41 2.25023
6.42 2.45813
6.43 2.64379
6.44 2.8048
6.45 2.9398
6.46 3.04756
6.47 3.12757
6.48 3.18013
6.49 3.2063
6.5 3.20785
6.51 3.18723
6.52 3.14744
6.53 3.09147
6.54 3.02343
6.55 2.94792
6.56 2.86886
6.57 2.78995
6.58 2.71458
6.59 2.64569
6.6 2.58564
6.61 2.53615
6.62 2.49818
6.63 2.47224
6.64 2.45812
6.65 2.45373
6.66 2.45706
6.67 2.46555
6.68 2.47619
6.69 2.48569
6.7 2.49058
6.71 2.48738
6.72 2.47275
6.73 2.44352
6.74 2.39559
6.75 2.32806
6.76 2.23949
6.77 2.12912
6.78 1.9969
6.79 1.84346
6.8 1.67013
6.81 1.47889
6.82 1.27228
6.83 1.05331
6.84 0.825019
6.85 0.591933
6.86 0.357986
6.87 0.127026
6.88 -0.0972048
6.89 -0.311165
6.9 -0.51161
6.91 -0.695663
6.92 -0.860875
6.93 -1.00527
6.94 -1.12609
6.95 -1.22294
6.96 -1.29606
6.97 -1.34553
6.98 -1.37189
6.99 -1.37607
7 -1.35933
7.01 -1.32326
7.02 -1.26969
7.03 -1.20063
7.04 -1.11785
7.05 -1.02386
7.06 -0.921617
7.07 -0.813531
7.08 -0.702034
7.09 -0.589536
7.1 -0.478411
7.11 -0.370974
7.12 -0.269464
7.13 -0.176019
7.14 -0.0929309
7.15 -0.0226858
7.16 0.033663
7.17 0.0746495
7.18 0.0990383
7.19 0.105853
7.2 0.0944042
7.21 0.0643124
7.22 0.0155309
7.23 -0.0516405
7.24 -0.136654
7.25 -0.239534
7.26 -0.357519
7.27 -0.488856
7.28 -0.6315
7.29 -0.783152
7.3 -0.941309
7.31 -1.10332
7.32 -1.26643
7.33 -1.42788
7.34 -1.58493
7.35 -1.73425
7.36 -1.87366
7.37 -2.00102
7.38 -2.11439
7.39 -2.21216
7.4 -2.29304
7.41 -2.35608
7.42 -2.40069
7.43 -2.42661
7.44 -2.43392
7.45 -2.42198
7.46 -2.39209
7.47 -2.3456
7.48 -2.28357
7.49 -2.20721
7.5 -2.11779
7.51 -2.01666
7.52 -1.90517
7.53 -1.78467
7.54 -1.65648
7.55 -1.52167
7.56 -1.38159
7.57 -1.23768
7.58 -1.09108
7.59 -0.942888
7.6 -0.794193
7.61 -0.646085
7.62 -0.499667
7.63 -0.356065
7.64 -0.216441
7.65 -0.0821536
7.66 0.0452157
7.67 0.164697
7.68 0.274996
7.69 0.374816
7.7 0.462887
7.71 0.537985
7.72 0.598966
7.73 0.644793
7.74 0.674568
7.75 0.687417
7.76 0.681631
7.77 0.658183
7.78 0.61703
7.79 0.55838
7.8 0.48269
7.81 0.39067
7.82 0.283277
7.83 0.161698
7.84 0.0273405
7.85 -0.118192
7.86 -0.273676
7.87 -0.4364
7.88 -0.604229
7.89 -0.775023
7.9 -0.946588
7.91 -1.11671
7.92 -1.28319
7.93 -1.44387
7.94 -1.59664
7.95 -1.73952
7.96 -1.86985
7.97 -1.98618
7.98 -2.0873
7.99 -2.17195
8 -2.23911
8.01 -2.28799
8.02 -2.31814
8.03 -2.32938
8.04 -2.32188
8.05 -2.2961
8.06 -2.25221
8.07 -2.19155
8.08 -2.11637
8.09 -2.02851
8.1 -1.93007
8.11 -1.82339
8.12 -1.71099
8.13 -1.59549
8.14 -1.47958
8.15 -1.36597
8.16 -1.25743
8.17 -1.15686
8.18 -1.06615
8.19 -0.987135
8.2 -0.921318
8.21 -0.86977
8.22 -0.833111
8.23 -0.811481
8.24 -0.804535
8.25 -0.811441
8.26 -0.831011
8.27 -0.862013
8.28 -0.90138
8.29 -0.946637
8.3 -0.995077
8.31 -1.04384
8.32 -1.08999
8.33 -1.13059
8.34 -1.1628
8.35 -1.18393
8.36 -1.19149
8.37 -1.18192
8.38 -1.15431
8.39 -1.10724
8.4 -1.03953
8.41 -0.950347
8.42 -0.839169
8.43 -0.705771
8.44 -0.550193
8.45 -0.372706
8.46 -0.173772
8.47 0.047178
8.48 0.288533
8.49 0.548947
8.5 0.827447
8.51 1.12297
8.52 1.43435
8.53 1.7603
8.54 2.0994
8.55 2.45003
8.56 2.81036
8.57 3.17853
8.58 3.5518
8.59 3.9271
8.6 4.3013
8.61 4.67089
8.62 5.03204
8.63 5.38059
8.64 5.71212
8.65 6.02202
8.66 6.30555
8.67 6.55701
8.68 6.77035
8.69 6.943
8.7 7.07104
8.71 7.15112
8.72 7.18052
8.73 7.15731
8.74 7.08042
8.75 6.94972
8.76 6.76608
8.77 6.53081
8.78 6.24424
8.79 5.91395
8.8 5.54476
8.81 5.1422
8.82 4.71242
8.83 4.26197
8.84 3.79764
8.85 3.32632
8.86 2.85474
8.87 2.38937
8.88 1.93753
8.89 1.50399
8.9 1.09311
8.91 0.708441
8.92 0.352608
8.93 0.0272705
8.94 -0.266858
8.95 -0.529975
8.96 -0.763117
8.97 -0.968057
8.98 -1.14579
8.99 -1.30052
9 -1.43603
9.01 -1.55567
9.02 -1.66279
9.03 -1.76057
9.04 -1.85188
9.05 -1.93921
9.06 -2.02455
9.07 -2.10935
9.08 -2.1945
9.09 -2.28023
9.1 -2.36614
9.11 -2.45133
9.12 -2.53447
9.13 -2.61389
9.14 -2.68768
9.15 -2.7538
9.16 -2.81018
9.17 -2.85483
9.18 -2.88551
9.19 -2.90018
9.2 -2.89844
9.21 -2.87957
9.22 -2.84329
9.23 -2.78974
9.24 -2.71954
9.25 -2.63368
9.26 -2.53356
9.27 -2.42091
9.28 -2.2976
9.29 -2.16556
9.3 -2.02783
9.31 -1.88679
9.32 -1.74478
9.33 -1.60408
9.34 -1.46681
9.35 -1.33492
9.36 -1.21017
9.37 -1.09405
9.38 -0.987837
9.39 -0.893452
9.4 -0.810858
9.41 -0.740502
9.42 -0.682647
9.43 -0.637361
9.44 -0.604528
9.45 -0.583874
9.46 -0.574982
9.47 -0.577307
9.48 -0.590185
9.49 -0.613407
9.5 -0.645588
9.51 -0.685558
9.52 -0.732242
9.53 -0.784474
9.54 -0.841005
9.55 -0.900505
9.56 -0.961572
9.57 -1.02275
9.58 -1.08252
9.59 -1.13915
9.6 -1.19099
9.61 -1.23664
9.62 -1.27469
9.63 -1.30381
9.64 -1.32282
9.65 -1.3307
9.66 -1.32663
9.67 -1.31002
9.68 -1.28052
9.69 -1.23769
9.7 -1.1815
9.71 -1.11317
9.72 -1.03352
9.73 -0.943614
9.74 -0.844763
9.75 -0.738474
9.76 -0.626422
9.77 -0.510413
9.78 -0.392333
9.79 -0.274135
9.8 -0.158
9.81 -0.0457653
9.82 0.0608351
9.83 0.160213
9.84 0.250964
9.85 0.331893
9.86 0.402043
9.87 0.460708
9.88 0.507452
9.89 0.542108
9.9 0.563852
9.91 0.574075
9.92 0.573488
9.93 0.563031
9.94 0.54387
9.95 0.517377
9.96 0.485111
9.97 0.448787
9.98 0.410252
9.99 0.371448
10 0.334633
10.01 0.301946
10.02 0.275379
10.03 0.256904
10.04 0.248394
10.05 0.251584
10.06 0.268026
10.07 0.299048
10.08 0.345713
10.09 0.408776
10.1 0.489468
10.11 0.58754
10.12 0.701983
10.13 0.831936
10.14 0.976115
10.15 1.13282
10.16 1.29993
10.17 1.47495
10.18 1.65506
10.19 1.83712
10.2 2.01758
10.21 2.19244
10.22 2.35814
10.23 2.51105
10.24 2.64763
10.25 2.76453
10.26 2.85865
10.27 2.92727
10.28 2.96806
10.29 2.9792
10.3 2.95891
10.31 2.90489
10.32 2.81924
10.33 2.70262
10.34 2.55629
10.35 2.38209
10.36 2.1824
10.37 1.96009
10.38 1.71841
10.39 1.46096
10.4 1.19159
10.41 0.913975
10.42 0.63308
10.43 0.352884
10.44 0.077211
10.45 -0.190356
10.46 -0.446548
10.47 -0.688473
10.48 -0.913669
10.49 -1.12014
10.5 -1.30639
10.51 -1.46998
10.52 -1.6115
10.53 -1.73134
10.54 -1.83002
10.55 -1.90843
10.56 -1.96779
10.57 -2.00961
10.58 -2.03558
10.59 -2.04756
10.6 -2.04744
10.61 -2.03672
10.62 -2.01758
10.63 -1.992
10.64 -1.96147
10.65 -1.92722
10.66 -1.8902
10.67 -1.85111
10.68 -1.81031
10.69 -1.76789
10.7 -1.72362
10.71 -1.67693
10.72 -1.62696
10.73 -1.57289
10.74 -1.51363
10.75 -1.44805
10.76 -1.37496
10.77 -1.29323
10.78 -1.20184
10.79 -1.0999
10.8 -0.98678
10.81 -0.861865
10.82 -0.724559
10.83 -0.575942
10.84 -0.416716
10.85 -0.247963
10.86 -0.0711414
10.87 0.111929
10.88 0.299089
10.89 0.487881
10.9 0.675591
10.91 0.859298
10.92 1.03515
10.93 1.20039
10.94 1.35195
10.95 1.48687
10.96 1.60235
10.97 1.69586
10.98 1.76519
10.99 1.8085
11 1.82439
11.01 1.81189
11.02 1.76862
11.03 1.69622
11.04 1.59576
11.05 1.46837
11.06 1.31564
11.07 1.1396
11.08 0.942596
11.09 0.727336
11.1 0.496753
11.11 0.253968
11.12 0.00193015
11.13 -0.255554
11.14 -0.514971
11.15 -0.773161
11.16 -1.02711
11.17 -1.27401
11.18 -1.51126
11.19 -1.73653
11.2 -1.94779
11.21 -2.14327
11.22 -2.32087
11.23 -2.47913
11.24 -2.61802
11.25 -2.737
11.26 -2.83575
11.27 -2.91418
11.28 -2.97238
11.29 -3.01063
11.3 -3.02934
11.31 -3.02906
11.32 -3.01007
11.33 -2.97243
11.34 -2.91804
11.35 -2.84775
11.36 -2.76239
11.37 -2.66284
11.38 -2.54996
11.39 -2.42459
11.4 -2.28757
11.41 -2.13971
11.42 -1.98172
11.43 -1.8137
11.44 -1.63707
11.45 -1.45244
11.46 -1.26037
11.47 -1.06134
11.48 -0.8558
11.49 -0.644161
11.5 -0.426799
11.51 -0.204079
11.52 0.0236233
11.53 0.256185
11.54 0.49283
11.55 0.732924
11.56 0.975766
11.57 1.2205
11.58 1.4661
11.59 1.71134
11.6 1.95476
11.61 2.19471
11.62 2.42929
11.63 2.65586
11.64 2.87206
11.65 3.07563
11.66 3.26394
11.67 3.43436
11.68 3.58421
11.69 3.71092
11.7 3.81204
11.71 3.88537
11.72 3.92897
11.73 3.94007
11.74 3.9172
11.75 3.86124
11.76 3.77216
11.77 3.65047
11.78 3.49728
11.79 3.31422
11.8 3.10345
11.81 2.8676
11.82 2.60975
11.83 2.33301
11.84 2.04083
11.85 1.73821
11.86 1.42911
11.87 1.11742
11.88 0.806942
11.89 0.501244
11.9 0.203613
11.91 -0.0830082
11.92 -0.356072
11.93 -0.613368
11.94 -0.851846
11.95 -1.07157
11.96 -1.27176
11.97 -1.45202
11.98 -1.61223
11.99 -1.75257
12 -1.87334
12.01 -1.97501
12.02 -2.05806
12.03 -2.123
12.04 -2.169
12.05 -2.19745
12.06 -2.20871
12.07 -2.20279
12.08 -2.17958
12.09 -2.13883
12.1 -2.08022
12.11 -2.00343
12.12 -1.90813
12.13 -1.7941
12.14 -1.66026
12.15 -1.50736
12.16 -1.33643
12.17 -1.14835
12.18 -0.944399
12.19 -0.72627
12.2 -0.496077
12.21 -0.25635
12.22 -0.00999939
12.23 0.239728
12.24 0.489156
12.25 0.734128
12.26 0.970846
12.27 1.19551
12.28 1.40444
12.29 1.59419
12.3 1.76162
12.31 1.90403
12.32 2.01918
12.33 2.1054
12.34 2.16092
12.35 2.18416
12.36 2.17721
12.37 2.14094
12.38 2.0768
12.39 1.98672
12.4 1.87308
12.41 1.73857
12.42 1.58617
12.43 1.41899
12.44 1.24014
12.45 1.05244
12.46 0.859723
12.47 0.664744
12.48 0.470003
12.49 0.277682
12.5 0.0896222
12.51 -0.092688
12.52 -0.268102
12.53 -0.435796
12.54 -0.59523
12.55 -0.745476
12.56 -0.886962
12.57 -1.01979
12.58 -1.144
12.59 -1.25965
12.6 -1.36668
12.61 -1.46492
12.62 -1.55405
12.63 -1.63353
12.64 -1.70263
12.65 -1.75973
12.66 -1.80392
12.67 -1.8342
12.68 -1.84917
12.69 -1.8474
12.7 -1.82746
12.71 -1.78803
12.72 -1.72794
12.73 -1.64627
12.74 -1.54239
12.75 -1.41513
12.76 -1.2647
12.77 -1.09273
12.78 -0.900443
12.79 -0.689525
12.8 -0.462166
12.81 -0.22102
12.82 0.0308356
12.83 0.28995
12.84 0.552571
12.85 0.814602
12.86 1.07136
12.87 1.31875
12.88 1.55269
12.89 1.76931
12.9 1.96497
12.91 2.13641
12.92 2.2808
12.93 2.39583
12.94 2.47974
12.95 2.53109
12.96 2.5472
12.97 2.53067
12.98 2.48233
12.99 2.40357
13 2.29634
13.01 2.16302
13.02 2.00642
13.03 1.82966
13.04 1.63609
13.05 1.42921
13.06 1.21211
13.07 0.989223
13.08 0.763983
13.09 0.539563
13.1 0.318871
13.11 0.104503
13.12 -0.101285
13.13 -0.2966
13.14 -0.479918
13.15 -0.650074
13.16 -0.805401
13.17 -0.945842
13.18 -1.07153
13.19 -1.18248
13.2 -1.27884
13.21 -1.36089
13.22 -1.42893
13.23 -1.4833
13.24 -1.52431
13.25 -1.5522
13.26 -1.56661
13.27 -1.56765
13.28 -1.55585
13.29 -1.53117
13.3 -1.49355
13.31 -1.44295
13.32 -1.37938
13.33 -1.30298
13.34 -1.21404
13.35 -1.11308
13.36 -1.00059
13.37 -0.877448
13.38 -0.745705
13.39 -0.607111
13.4 -0.463731
13.41 -0.317919
13.42 -0.172284
13.43 -0.0296336
13.44 0.107094
13.45 0.234905
13.46 0.350695
13.47 0.450479
13.48 0.532594
13.49 0.594823
13.5 0.635369
13.51 0.652924
13.52 0.646732
13.53 0.616629
13.54 0.56306
13.55 0.48709
