# xPDFsuite Configuration #
[PDF]
wavelength = 0.1
dataformat = QA
inputfile = x0_20171023-035354__192.0K_001.chi
backgroundfile = kapton_1mmOD_20171019-202628_0ea754_001_fit2d.chi
mode = xray
bgscale = 1.0
composition = SrFe2As2
outputtype = gr
qmaxinst = 25.0
qmin = 0.4
qmax = 25.0
rmax = 100.0
rmin = 0.0
rstep = 0.01
rpoly = 0.7

[Misc]
inputdir = /home/ben/scatteringdata/2017_03_NOMAD-C4/xray/OctoberBeamtime/x0/x0_8/chi_fit2d
savedir = /home/ben/scatteringdata/2017_03_NOMAD-C4/xray/OctoberBeamtime/x0/x0_8/pdf_fit2d
backgroundfilefull = /home/ben/scatteringdata/2017_03_NOMAD-C4/xray/OctoberBeamtime/kapton_1mmOD_20171019-202628_0ea754_001_fit2d.chi

#### start data
#S 1
#L r($\AA$)  G($\AA^{-2}$)
0 0
0.01 0.000289433
0.02 0.000559596
0.03 0.000793769
0.04 0.000977326
0.05 0.00109845
0.06 0.00114856
0.07 0.00112241
0.08 0.00101792
0.09 0.000835642
0.1 0.000578094
0.11 0.000244482
0.12 -0.000157309
0.13 -0.000622536
0.14 -0.00114821
0.15 -0.00173169
0.16 -0.00236991
0.17 -0.00305797
0.18 -0.00378713
0.19 -0.00454238
0.2 -0.00529945
0.21 -0.00601734
0.22 -0.00663694
0.23 -0.00708496
0.24 -0.00726602
0.25 -0.00706297
0.26 -0.00633725
0.27 -0.00493067
0.28 -0.00266897
0.29 0.000632893
0.3 0.00516379
0.31 0.0111614
0.32 0.0188332
0.33 0.0282459
0.34 0.0394948
0.35 0.0526236
0.36 0.0676138
0.37 0.0843751
0.38 0.102739
0.39 0.122455
0.4 0.143187
0.41 0.16452
0.42 0.185917
0.43 0.206775
0.44 0.22648
0.45 0.244391
0.46 0.259862
0.47 0.272261
0.48 0.280997
0.49 0.285547
0.5 0.285472
0.51 0.280439
0.52 0.269838
0.53 0.254044
0.54 0.233184
0.55 0.207538
0.56 0.177536
0.57 0.143744
0.58 0.106853
0.59 0.0676515
0.6 0.027003
0.61 -0.0141874
0.62 -0.0549183
0.63 -0.0942513
0.64 -0.131379
0.65 -0.165583
0.66 -0.196272
0.67 -0.223001
0.68 -0.245487
0.69 -0.263622
0.7 -0.277471
0.71 -0.28727
0.72 -0.293252
0.73 -0.296092
0.74 -0.296561
0.75 -0.295393
0.76 -0.293359
0.77 -0.291234
0.78 -0.289758
0.79 -0.289606
0.8 -0.291353
0.81 -0.295451
0.82 -0.302311
0.83 -0.312117
0.84 -0.324705
0.85 -0.339878
0.86 -0.3573
0.87 -0.376509
0.88 -0.396942
0.89 -0.417969
0.9 -0.438919
0.91 -0.459118
0.92 -0.47788
0.93 -0.494486
0.94 -0.508549
0.95 -0.519707
0.96 -0.527724
0.97 -0.532501
0.98 -0.534076
0.99 -0.532617
1 -0.52841
1.01 -0.521838
1.02 -0.513354
1.03 -0.503402
1.04 -0.492651
1.05 -0.481607
1.06 -0.470733
1.07 -0.460427
1.08 -0.451
1.09 -0.442666
1.1 -0.435535
1.11 -0.429616
1.12 -0.424818
1.13 -0.421019
1.14 -0.417902
1.15 -0.415172
1.16 -0.412535
1.17 -0.409714
1.18 -0.406475
1.19 -0.402646
1.2 -0.398141
1.21 -0.39297
1.22 -0.387248
1.23 -0.381194
1.24 -0.375179
1.25 -0.369629
1.26 -0.365022
1.27 -0.361868
1.28 -0.360681
1.29 -0.361948
1.3 -0.366094
1.31 -0.373458
1.32 -0.38426
1.33 -0.398717
1.34 -0.416765
1.35 -0.437991
1.36 -0.461987
1.37 -0.488203
1.38 -0.515971
1.39 -0.544528
1.4 -0.57305
1.41 -0.600693
1.42 -0.626631
1.43 -0.650028
1.44 -0.67003
1.45 -0.686287
1.46 -0.698452
1.47 -0.706363
1.48 -0.710053
1.49 -0.709744
1.5 -0.705845
1.51 -0.698926
1.52 -0.689695
1.53 -0.678959
1.54 -0.667619
1.55 -0.656665
1.56 -0.646944
1.57 -0.639223
1.58 -0.634148
1.59 -0.632218
1.6 -0.633757
1.61 -0.638899
1.62 -0.647589
1.63 -0.659585
1.64 -0.674641
1.65 -0.691968
1.66 -0.710852
1.67 -0.730552
1.68 -0.750309
1.69 -0.769391
1.7 -0.787135
1.71 -0.802983
1.72 -0.816516
1.73 -0.827473
1.74 -0.835624
1.75 -0.841159
1.76 -0.844434
1.77 -0.845872
1.78 -0.84601
1.79 -0.845454
1.8 -0.844844
1.81 -0.844809
1.82 -0.845922
1.83 -0.848661
1.84 -0.853462
1.85 -0.860535
1.86 -0.869783
1.87 -0.881025
1.88 -0.89392
1.89 -0.907989
1.9 -0.922649
1.91 -0.937254
1.92 -0.951143
1.93 -0.963693
1.94 -0.974315
1.95 -0.982504
1.96 -0.988195
1.97 -0.991422
1.98 -0.992446
1.99 -0.991754
2 -0.990043
2.01 -0.988181
2.02 -0.987161
2.03 -0.988035
2.04 -0.991863
2.05 -0.99991
2.06 -1.01263
2.07 -1.03043
2.08 -1.05331
2.09 -1.08086
2.1 -1.11217
2.11 -1.14582
2.12 -1.17986
2.13 -1.21187
2.14 -1.23899
2.15 -1.25713
2.16 -1.26304
2.17 -1.25319
2.18 -1.22403
2.19 -1.17225
2.2 -1.09492
2.21 -0.989656
2.22 -0.854786
2.23 -0.68947
2.24 -0.493815
2.25 -0.267436
2.26 -0.0137784
2.27 0.262921
2.28 0.558161
2.29 0.866524
2.3 1.18181
2.31 1.49719
2.32 1.80545
2.33 2.09916
2.34 2.37094
2.35 2.61229
2.36 2.81596
2.37 2.97764
2.38 3.0928
2.39 3.15811
2.4 3.17159
2.41 3.13264
2.42 3.04214
2.43 2.90239
2.44 2.71706
2.45 2.49025
2.46 2.2275
2.47 1.93819
2.48 1.62998
2.49 1.31087
2.5 0.988955
2.51 0.672146
2.52 0.367913
2.53 0.08306
2.54 -0.176479
2.55 -0.405531
2.56 -0.597912
2.57 -0.753684
2.58 -0.871899
2.59 -0.952855
2.6 -0.998019
2.61 -1.00991
2.62 -0.991968
2.63 -0.94835
2.64 -0.883761
2.65 -0.80324
2.66 -0.711538
2.67 -0.61482
2.68 -0.517925
2.69 -0.425157
2.7 -0.340239
2.71 -0.266225
2.72 -0.20544
2.73 -0.159453
2.74 -0.129094
2.75 -0.114492
2.76 -0.115964
2.77 -0.131795
2.78 -0.160075
2.79 -0.198976
2.8 -0.246505
2.81 -0.30062
2.82 -0.359337
2.83 -0.420814
2.84 -0.483427
2.85 -0.545814
2.86 -0.606813
2.87 -0.665594
2.88 -0.721759
2.89 -0.775079
2.9 -0.82549
2.91 -0.873032
2.92 -0.917772
2.93 -0.959738
2.94 -0.998846
2.95 -1.03485
2.96 -1.06718
2.97 -1.09493
2.98 -1.11729
2.99 -1.13305
3 -1.14079
3.01 -1.13894
3.02 -1.12588
3.03 -1.09995
3.04 -1.05963
3.05 -1.00353
3.06 -0.930386
3.07 -0.838325
3.08 -0.728348
3.09 -0.600724
3.1 -0.456248
3.11 -0.296258
3.12 -0.122628
3.13 0.0622667
3.14 0.255594
3.15 0.454138
3.16 0.654387
3.17 0.852193
3.18 1.04362
3.19 1.22493
3.2 1.39259
3.21 1.5433
3.22 1.67417
3.23 1.78279
3.24 1.86727
3.25 1.92634
3.26 1.95935
3.27 1.96476
3.28 1.94431
3.29 1.89991
3.3 1.83344
3.31 1.74725
3.32 1.64408
3.33 1.52695
3.34 1.39912
3.35 1.26392
3.36 1.12472
3.37 0.984891
3.38 0.847864
3.39 0.71645
3.4 0.593125
3.41 0.479989
3.42 0.37874
3.43 0.290646
3.44 0.216541
3.45 0.156828
3.46 0.111503
3.47 0.0805371
3.48 0.0634531
3.49 0.0584022
3.5 0.0640649
3.51 0.0789452
3.52 0.10143
3.53 0.129847
3.54 0.162526
3.55 0.197851
3.56 0.234315
3.57 0.270551
3.58 0.305242
3.59 0.337546
3.6 0.366862
3.61 0.392866
3.62 0.415524
3.63 0.435088
3.64 0.452084
3.65 0.467291
3.66 0.481712
3.67 0.496535
3.68 0.513324
3.69 0.533471
3.7 0.558392
3.71 0.589452
3.72 0.627899
3.73 0.674793
3.74 0.730947
3.75 0.796872
3.76 0.872726
3.77 0.958282
3.78 1.05338
3.79 1.15643
3.8 1.26565
3.81 1.37907
3.82 1.49433
3.83 1.60879
3.84 1.71956
3.85 1.82359
3.86 1.91777
3.87 1.99901
3.88 2.06351
3.89 2.10843
3.9 2.13205
3.91 2.13251
3.92 2.10843
3.93 2.05905
3.94 1.98418
3.95 1.88429
3.96 1.76048
3.97 1.61446
3.98 1.448
3.99 1.26381
4 1.06622
4.01 0.858806
4.02 0.645328
4.03 0.429629
4.04 0.215501
4.05 0.00656877
4.06 -0.193814
4.07 -0.382665
4.08 -0.557252
4.09 -0.714537
4.1 -0.8542
4.11 -0.975514
4.12 -1.07834
4.13 -1.16309
4.14 -1.23068
4.15 -1.28247
4.16 -1.32019
4.17 -1.34579
4.18 -1.36144
4.19 -1.36889
4.2 -1.37101
4.21 -1.3698
4.22 -1.36699
4.23 -1.36396
4.24 -1.36175
4.25 -1.36099
4.26 -1.36187
4.27 -1.36418
4.28 -1.3673
4.29 -1.37018
4.3 -1.37142
4.31 -1.36949
4.32 -1.36275
4.33 -1.3495
4.34 -1.32807
4.35 -1.29695
4.36 -1.2548
4.37 -1.20058
4.38 -1.13357
4.39 -1.05281
4.4 -0.958571
4.41 -0.851886
4.42 -0.733734
4.43 -0.605486
4.44 -0.468869
4.45 -0.325922
4.46 -0.178933
4.47 -0.0303855
4.48 0.117119
4.49 0.260727
4.5 0.397402
4.51 0.524831
4.52 0.640655
4.53 0.742735
4.54 0.829195
4.55 0.89846
4.56 0.949286
4.57 0.980774
4.58 0.992384
4.59 0.983642
4.6 0.953705
4.61 0.904495
4.62 0.836881
4.63 0.752013
4.64 0.651285
4.65 0.536304
4.66 0.408851
4.67 0.270847
4.68 0.124309
4.69 -0.028681
4.7 -0.1862
4.71 -0.345667
4.72 -0.505046
4.73 -0.66239
4.74 -0.815868
4.75 -0.963794
4.76 -1.10464
4.77 -1.23708
4.78 -1.35997
4.79 -1.47238
4.8 -1.57288
4.81 -1.66147
4.82 -1.73816
4.83 -1.80293
4.84 -1.85596
4.85 -1.89762
4.86 -1.9284
4.87 -1.94893
4.88 -1.95994
4.89 -1.96218
4.9 -1.95611
4.91 -1.94271
4.92 -1.92295
4.93 -1.89749
4.94 -1.86685
4.95 -1.83147
4.96 -1.79161
4.97 -1.74742
4.98 -1.69889
4.99 -1.64589
5 -1.58802
5.01 -1.52478
5.02 -1.45601
5.03 -1.38125
5.04 -1.30007
5.05 -1.21205
5.06 -1.11688
5.07 -1.01435
5.08 -0.90437
5.09 -0.787038
5.1 -0.662511
5.11 -0.530976
5.12 -0.393589
5.13 -0.25123
5.14 -0.104952
5.15 0.04404
5.16 0.194412
5.17 0.344735
5.18 0.493518
5.19 0.639249
5.2 0.780423
5.21 0.914985
5.22 1.04198
5.23 1.16017
5.24 1.26849
5.25 1.36601
5.26 1.45198
5.27 1.52585
5.28 1.58723
5.29 1.63592
5.3 1.67187
5.31 1.69438
5.32 1.70438
5.33 1.70244
5.34 1.68904
5.35 1.6647
5.36 1.63003
5.37 1.58564
5.38 1.53217
5.39 1.47026
5.4 1.40056
5.41 1.32337
5.42 1.2395
5.43 1.1498
5.44 1.05486
5.45 0.955294
5.46 0.851685
5.47 0.744638
5.48 0.634763
5.49 0.522677
5.5 0.409008
5.51 0.294386
5.52 0.179527
5.53 0.0651252
5.54 -0.0481647
5.55 -0.159694
5.56 -0.268825
5.57 -0.374937
5.58 -0.477432
5.59 -0.575738
5.6 -0.669314
5.61 -0.757548
5.62 -0.839659
5.63 -0.915554
5.64 -0.984831
5.65 -1.04712
5.66 -1.10208
5.67 -1.14939
5.68 -1.18878
5.69 -1.21999
5.7 -1.24278
5.71 -1.25697
5.72 -1.26169
5.73 -1.25757
5.74 -1.24458
5.75 -1.22278
5.76 -1.1923
5.77 -1.1534
5.78 -1.10642
5.79 -1.05185
5.8 -0.990275
5.81 -0.922435
5.82 -0.848894
5.83 -0.771026
5.84 -0.69003
5.85 -0.607124
5.86 -0.5236
5.87 -0.440797
5.88 -0.360075
5.89 -0.282784
5.9 -0.210231
5.91 -0.14365
5.92 -0.0845856
5.93 -0.0339654
5.94 0.00763067
5.95 0.0395842
5.96 0.0614704
5.97 0.0730651
5.98 0.0743448
5.99 0.0654808
6 0.0468284
6.01 0.0189104
6.02 -0.0178775
6.03 -0.0627274
6.04 -0.114327
6.05 -0.17169
6.06 -0.233777
6.07 -0.299518
6.08 -0.367827
6.09 -0.437612
6.1 -0.507783
6.11 -0.577252
6.12 -0.644877
6.13 -0.709336
6.14 -0.769648
6.15 -0.824685
6.16 -0.873294
6.17 -0.914289
6.18 -0.946449
6.19 -0.968526
6.2 -0.979255
6.21 -0.97737
6.22 -0.961583
6.23 -0.929485
6.24 -0.881125
6.25 -0.815595
6.26 -0.73219
6.27 -0.63045
6.28 -0.510211
6.29 -0.371644
6.3 -0.215292
6.31 -0.0420961
6.32 0.146589
6.33 0.349794
6.34 0.564346
6.35 0.787461
6.36 1.01622
6.37 1.24745
6.38 1.47782
6.39 1.7039
6.4 1.92228
6.41 2.12965
6.42 2.32291
6.43 2.49826
6.44 2.65353
6.45 2.7874
6.46 2.89863
6.47 2.98655
6.48 3.05109
6.49 3.09282
6.5 3.11287
6.51 3.11291
6.52 3.09508
6.53 3.06146
6.54 3.01511
6.55 2.9597
6.56 2.8983
6.57 2.83386
6.58 2.76914
6.59 2.7066
6.6 2.64828
6.61 2.59577
6.62 2.55013
6.63 2.512
6.64 2.48151
6.65 2.45747
6.66 2.43862
6.67 2.42324
6.68 2.40926
6.69 2.39433
6.7 2.37595
6.71 2.35155
6.72 2.31864
6.73 2.2748
6.74 2.21689
6.75 2.14416
6.76 2.05543
6.77 1.95002
6.78 1.82781
6.79 1.6892
6.8 1.53512
6.81 1.36702
6.82 1.1868
6.83 0.996771
6.84 0.799243
6.85 0.597767
6.86 0.395453
6.87 0.195369
6.88 0.000534004
6.89 -0.186166
6.9 -0.36205
6.91 -0.524709
6.92 -0.672055
6.93 -0.802361
6.94 -0.913231
6.95 -1.00419
6.96 -1.07529
6.97 -1.12647
6.98 -1.15801
6.99 -1.17058
7 -1.16509
7.01 -1.14277
7.02 -1.10505
7.03 -1.05357
7.04 -0.989722
7.05 -0.915598
7.06 -0.833719
7.07 -0.746151
7.08 -0.654992
7.09 -0.562345
7.1 -0.470299
7.11 -0.380909
7.12 -0.296175
7.13 -0.218026
7.14 -0.148523
7.15 -0.0899065
7.16 -0.0431998
7.17 -0.00976532
7.18 0.00923543
7.19 0.0128678
7.2 0.000449223
7.21 -0.0284276
7.22 -0.0738753
7.23 -0.135697
7.24 -0.213477
7.25 -0.307314
7.26 -0.414807
7.27 -0.534447
7.28 -0.664456
7.29 -0.802823
7.3 -0.947339
7.31 -1.09565
7.32 -1.2453
7.33 -1.3938
7.34 -1.53868
7.35 -1.67694
7.36 -1.80652
7.37 -1.92544
7.38 -2.03189
7.39 -2.12432
7.4 -2.20149
7.41 -2.26245
7.42 -2.30657
7.43 -2.33353
7.44 -2.34331
7.45 -2.33524
7.46 -2.31043
7.47 -2.27008
7.48 -2.21512
7.49 -2.14661
7.5 -2.06571
7.51 -1.97366
7.52 -1.87168
7.53 -1.76105
7.54 -1.64299
7.55 -1.5185
7.56 -1.38884
7.57 -1.25539
7.58 -1.1192
7.59 -0.981291
7.6 -0.842685
7.61 -0.704378
7.62 -0.567376
7.63 -0.432705
7.64 -0.301414
7.65 -0.174724
7.66 -0.0540595
7.67 0.0596874
7.68 0.165336
7.69 0.261699
7.7 0.347599
7.71 0.421896
7.72 0.48351
7.73 0.531448
7.74 0.564835
7.75 0.582815
7.76 0.583756
7.77 0.568476
7.78 0.536877
7.79 0.489088
7.8 0.42548
7.81 0.346664
7.82 0.253488
7.83 0.147024
7.84 0.028558
7.85 -0.100436
7.86 -0.238838
7.87 -0.384126
7.88 -0.534321
7.89 -0.687443
7.9 -0.841476
7.91 -0.994397
7.92 -1.14421
7.93 -1.28898
7.94 -1.42686
7.95 -1.5561
7.96 -1.67443
7.97 -1.78065
7.98 -1.8738
7.99 -1.95288
8 -2.01711
8.01 -2.06597
8.02 -2.09916
8.03 -2.11665
8.04 -2.1187
8.05 -2.10579
8.06 -2.07814
8.07 -2.03695
8.08 -1.98408
8.09 -1.92105
8.1 -1.84958
8.11 -1.77154
8.12 -1.68892
8.13 -1.60377
8.14 -1.51821
8.15 -1.43429
8.16 -1.35416
8.17 -1.28002
8.18 -1.21331
8.19 -1.15542
8.2 -1.10745
8.21 -1.07019
8.22 -1.04408
8.23 -1.02917
8.24 -1.02513
8.25 -1.03126
8.26 -1.04656
8.27 -1.06992
8.28 -1.09892
8.29 -1.1315
8.3 -1.16544
8.31 -1.19833
8.32 -1.22772
8.33 -1.25112
8.34 -1.26611
8.35 -1.27035
8.36 -1.26166
8.37 -1.23683
8.38 -1.19505
8.39 -1.13503
8.4 -1.05564
8.41 -0.956076
8.42 -0.835797
8.43 -0.694553
8.44 -0.532353
8.45 -0.349441
8.46 -0.146276
8.47 0.0776124
8.48 0.320592
8.49 0.581242
8.5 0.858457
8.51 1.15101
8.52 1.45756
8.53 1.77665
8.54 2.10668
8.55 2.4459
8.56 2.79239
8.57 3.14416
8.58 3.49859
8.59 3.85286
8.6 4.20415
8.61 4.54937
8.62 4.88518
8.63 5.20808
8.64 5.51435
8.65 5.80017
8.66 6.06167
8.67 6.29409
8.68 6.49245
8.69 6.65479
8.7 6.77792
8.71 6.85907
8.72 6.89597
8.73 6.88698
8.74 6.83109
8.75 6.72805
8.76 6.57838
8.77 6.3829
8.78 6.1414
8.79 5.86009
8.8 5.54266
8.81 5.19343
8.82 4.81724
8.83 4.4193
8.84 4.0051
8.85 3.58026
8.86 3.15036
8.87 2.72085
8.88 2.29767
8.89 1.88542
8.9 1.48814
8.91 1.10929
8.92 0.751601
8.93 0.417115
8.94 0.10712
8.95 -0.17781
8.96 -0.437779
8.97 -0.67351
8.98 -0.884956
8.99 -1.07494
9 -1.246
9.01 -1.40041
9.02 -1.5405
9.03 -1.66856
9.04 -1.78674
9.05 -1.89698
9.06 -2.0009
9.07 -2.09978
9.08 -2.19432
9.09 -2.28505
9.1 -2.3721
9.11 -2.45511
9.12 -2.53335
9.13 -2.60588
9.14 -2.67151
9.15 -2.72897
9.16 -2.7769
9.17 -2.81401
9.18 -2.83872
9.19 -2.84958
9.2 -2.84651
9.21 -2.82902
9.22 -2.79697
9.23 -2.75053
9.24 -2.69017
9.25 -2.6167
9.26 -2.53122
9.27 -2.43506
9.28 -2.32969
9.29 -2.21658
9.3 -2.09819
9.31 -1.97641
9.32 -1.85314
9.33 -1.7302
9.34 -1.60934
9.35 -1.49219
9.36 -1.3802
9.37 -1.27467
9.38 -1.17669
9.39 -1.08788
9.4 -1.00833
9.41 -0.938502
9.42 -0.878684
9.43 -0.829009
9.44 -0.789455
9.45 -0.759859
9.46 -0.739934
9.47 -0.729279
9.48 -0.727387
9.49 -0.734124
9.5 -0.748371
9.51 -0.769179
9.52 -0.795677
9.53 -0.826917
9.54 -0.86188
9.55 -0.89948
9.56 -0.938574
9.57 -0.977969
9.58 -1.01644
9.59 -1.05257
9.6 -1.08502
9.61 -1.11265
9.62 -1.13429
9.63 -1.14888
9.64 -1.15545
9.65 -1.15315
9.66 -1.14132
9.67 -1.11947
9.68 -1.08732
9.69 -1.04449
9.7 -0.990974
9.71 -0.927754
9.72 -0.855496
9.73 -0.775084
9.74 -0.6876
9.75 -0.594298
9.76 -0.496576
9.77 -0.395947
9.78 -0.293997
9.79 -0.19238
9.8 -0.092967
9.81 0.00271065
9.82 0.0931747
9.83 0.17707
9.84 0.253196
9.85 0.320535
9.86 0.378271
9.87 0.425814
9.88 0.462809
9.89 0.489141
9.9 0.504126
9.91 0.509035
9.92 0.504544
9.93 0.491537
9.94 0.471106
9.95 0.444527
9.96 0.413247
9.97 0.378852
9.98 0.343043
9.99 0.307607
10 0.27465
10.01 0.246093
10.02 0.223733
10.03 0.20935
10.04 0.204626
10.05 0.21111
10.06 0.230179
10.07 0.262998
10.08 0.310487
10.09 0.373286
10.1 0.452482
10.11 0.547795
10.12 0.658257
10.13 0.783052
10.14 0.920987
10.15 1.0705
10.16 1.22965
10.17 1.39617
10.18 1.56749
10.19 1.74075
10.2 1.91275
10.21 2.07984
10.22 2.23876
10.23 2.3862
10.24 2.51888
10.25 2.6337
10.26 2.72778
10.27 2.79853
10.28 2.84371
10.29 2.86154
10.3 2.85019
10.31 2.80738
10.32 2.73485
10.33 2.63301
10.34 2.50282
10.35 2.34577
10.36 2.16386
10.37 1.95956
10.38 1.73573
10.39 1.49556
10.4 1.24251
10.41 0.979777
10.42 0.712109
10.43 0.443234
10.44 0.176781
10.45 -0.0837967
10.46 -0.335294
10.47 -0.574822
10.48 -0.799857
10.49 -1.00829
10.5 -1.19844
10.51 -1.36777
10.52 -1.5165
10.53 -1.64472
10.54 -1.75265
10.55 -1.84088
10.56 -1.91037
10.57 -1.96232
10.58 -1.99819
10.59 -2.0196
10.6 -2.02826
10.61 -2.02546
10.62 -2.01327
10.63 -1.99366
10.64 -1.96805
10.65 -1.93769
10.66 -1.9036
10.67 -1.86654
10.68 -1.82698
10.69 -1.78514
10.7 -1.74094
10.71 -1.69398
10.72 -1.64358
10.73 -1.58911
10.74 -1.52969
10.75 -1.46432
10.76 -1.39201
10.77 -1.31176
10.78 -1.22268
10.79 -1.12401
10.8 -1.01517
10.81 -0.895631
10.82 -0.764867
10.83 -0.623861
10.84 -0.473252
10.85 -0.314018
10.86 -0.147476
10.87 0.024737
10.88 0.200679
10.89 0.378145
10.9 0.554705
10.91 0.727745
10.92 0.893831
10.93 1.05051
10.94 1.19503
10.95 1.32477
10.96 1.43724
10.97 1.53018
10.98 1.60163
10.99 1.64993
11 1.67381
11.01 1.67239
11.02 1.64347
11.03 1.58845
11.04 1.5082
11.05 1.40362
11.06 1.276
11.07 1.127
11.08 0.95857
11.09 0.772937
11.1 0.572545
11.11 0.359996
11.12 0.137658
11.13 -0.091227
11.14 -0.32363
11.15 -0.556859
11.16 -0.788327
11.17 -1.01558
11.18 -1.23635
11.19 -1.44853
11.2 -1.65024
11.21 -1.83981
11.22 -2.01527
11.23 -2.17511
11.24 -2.319
11.25 -2.44617
11.26 -2.55603
11.27 -2.64817
11.28 -2.72232
11.29 -2.77837
11.3 -2.81633
11.31 -2.83633
11.32 -2.83825
11.33 -2.8217
11.34 -2.78819
11.35 -2.7382
11.36 -2.67228
11.37 -2.591
11.38 -2.49503
11.39 -2.38502
11.4 -2.2617
11.41 -2.12579
11.42 -1.97801
11.43 -1.81834
11.44 -1.64846
11.45 -1.46913
11.46 -1.28107
11.47 -1.08501
11.48 -0.881639
11.49 -0.671647
11.5 -0.4557
11.51 -0.234463
11.52 -0.00860442
11.53 0.221407
11.54 0.454558
11.55 0.690003
11.56 0.926868
11.57 1.16418
11.58 1.40084
11.59 1.63563
11.6 1.86717
11.61 2.09394
11.62 2.31427
11.63 2.52577
11.64 2.72648
11.65 2.91456
11.66 3.08786
11.67 3.24419
11.68 3.38138
11.69 3.49733
11.7 3.59007
11.71 3.65781
11.72 3.69898
11.73 3.71125
11.74 3.69343
11.75 3.64631
11.76 3.56986
11.77 3.4645
11.78 3.3311
11.79 3.17096
11.8 2.98581
11.81 2.77779
11.82 2.54937
11.83 2.30303
11.84 2.0415
11.85 1.76904
11.86 1.48891
11.87 1.20441
11.88 0.918733
11.89 0.634955
11.9 0.355953
11.91 0.0843617
11.92 -0.177465
11.93 -0.427415
11.94 -0.662664
11.95 -0.882805
11.96 -1.0868
11.97 -1.27389
11.98 -1.44356
11.99 -1.59549
12 -1.72952
12.01 -1.84559
12.02 -1.94373
12.03 -2.02398
12.04 -2.08509
12.05 -2.12811
12.06 -2.15317
12.07 -2.16012
12.08 -2.14879
12.09 -2.11894
12.1 -2.07037
12.11 -2.00288
12.12 -1.91637
12.13 -1.81085
12.14 -1.68552
12.15 -1.5414
12.16 -1.37975
12.17 -1.20163
12.18 -1.00845
12.19 -0.801952
12.2 -0.584246
12.21 -0.357757
12.22 -0.125221
12.23 0.110369
12.24 0.345671
12.25 0.576949
12.26 0.800822
12.27 1.01392
12.28 1.21301
12.29 1.39504
12.3 1.55726
12.31 1.69725
12.32 1.81303
12.33 1.90307
12.34 1.96571
12.35 1.99944
12.36 2.00597
12.37 1.9859
12.38 1.94032
12.39 1.87074
12.4 1.77902
12.41 1.66735
12.42 1.53813
12.43 1.39391
12.44 1.23727
12.45 1.07041
12.46 0.896775
12.47 0.718789
12.48 0.538678
12.49 0.358447
12.5 0.179855
12.51 0.00439998
12.52 -0.166673
12.53 -0.332367
12.54 -0.491901
12.55 -0.644164
12.56 -0.789119
12.57 -0.926507
12.58 -1.05605
12.59 -1.17748
12.6 -1.29047
12.61 -1.39465
12.62 -1.48952
12.63 -1.57447
12.64 -1.64875
12.65 -1.71076
12.66 -1.75976
12.67 -1.79493
12.68 -1.81507
12.69 -1.81901
12.7 -1.80557
12.71 -1.77366
12.72 -1.72235
12.73 -1.65086
12.74 -1.55869
12.75 -1.44477
12.76 -1.30924
12.77 -1.15354
12.78 -0.978635
12.79 -0.785889
12.8 -0.577082
12.81 -0.354388
12.82 -0.120352
12.83 0.122152
12.84 0.36996
12.85 0.619638
12.86 0.867214
12.87 1.10895
12.88 1.34121
12.89 1.56042
12.9 1.7632
12.91 1.94637
12.92 2.1071
12.93 2.24289
12.94 2.3517
12.95 2.4317
12.96 2.47981
12.97 2.49771
12.98 2.48548
12.99 2.44374
13 2.37357
13.01 2.27655
13.02 2.15465
13.03 2.01021
13.04 1.8459
13.05 1.66458
13.06 1.46851
13.07 1.26199
13.08 1.04829
13.09 0.830487
13.1 0.611552
13.11 0.394275
13.12 0.18123
13.13 -0.0252649
13.14 -0.223167
13.15 -0.410722
13.16 -0.585714
13.17 -0.74729
13.18 -0.894881
13.19 -1.02787
13.2 -1.14583
13.21 -1.24855
13.22 -1.3359
13.23 -1.40792
13.24 -1.46466
13.25 -1.50628
13.26 -1.53231
13.27 -1.54298
13.28 -1.53907
13.29 -1.5208
13.3 -1.4884
13.31 -1.44214
13.32 -1.3824
13.33 -1.3096
13.34 -1.22435
13.35 -1.12739
13.36 -1.01941
13.37 -0.901394
13.38 -0.775379
13.39 -0.64303
13.4 -0.506247
13.41 -0.367149
13.42 -0.228045
13.43 -0.0913968
13.44 0.040229
13.45 0.164223
13.46 0.27787
13.47 0.377674
13.48 0.462118
13.49 0.529179
13.5 0.577164
13.51 0.604769
13.52 0.611134
13.53 0.595881
13.54 0.559139
