# xPDFsuite Configuration #
[PDF]
wavelength = 0.1
dataformat = QA
inputfile = x0_20171023-040034__204.0K_001.chi
backgroundfile = kapton_1mmOD_20171019-202628_0ea754_001_fit2d.chi
mode = xray
bgscale = 1.0
composition = SrFe2As2
outputtype = gr
qmaxinst = 25.0
qmin = 0.4
qmax = 25.0
rmax = 100.0
rmin = 0.0
rstep = 0.01
rpoly = 0.7

[Misc]
inputdir = /home/ben/scatteringdata/2017_03_NOMAD-C4/xray/OctoberBeamtime/x0/x0_8/chi_fit2d
savedir = /home/ben/scatteringdata/2017_03_NOMAD-C4/xray/OctoberBeamtime/x0/x0_8/pdf_fit2d
backgroundfilefull = /home/ben/scatteringdata/2017_03_NOMAD-C4/xray/OctoberBeamtime/kapton_1mmOD_20171019-202628_0ea754_001_fit2d.chi

#### start data
#S 1
#L r($\AA$)  G($\AA^{-2}$)
0 0
0.01 0.000329675
0.02 0.000637447
0.03 0.000904314
0.04 0.00111369
0.05 0.00125224
0.06 0.00131045
0.07 0.00128284
0.08 0.00116785
0.09 0.000967372
0.1 0.000686011
0.11 0.000325784
0.12 -0.000101704
0.13 -0.000588217
0.14 -0.00112759
0.15 -0.00171479
0.16 -0.00234563
0.17 -0.003016
0.18 -0.00372039
0.19 -0.00444996
0.2 -0.00518996
0.21 -0.00591439
0.22 -0.00658248
0.23 -0.00714053
0.24 -0.00751584
0.25 -0.00761513
0.26 -0.00732343
0.27 -0.00650411
0.28 -0.00500042
0.29 -0.00263848
0.3 0.000767953
0.31 0.00545951
0.32 0.0116661
0.33 0.0195012
0.34 0.0291142
0.35 0.0406178
0.36 0.0540775
0.37 0.0694999
0.38 0.0868231
0.39 0.105909
0.4 0.126537
0.41 0.148415
0.42 0.171148
0.43 0.19417
0.44 0.216922
0.45 0.238786
0.46 0.259103
0.47 0.277187
0.48 0.292354
0.49 0.303938
0.5 0.311323
0.51 0.313952
0.52 0.310935
0.53 0.30235
0.54 0.288028
0.55 0.267951
0.56 0.242263
0.57 0.211271
0.58 0.175445
0.59 0.135405
0.6 0.0919111
0.61 0.0458379
0.62 -0.00188606
0.63 -0.0500561
0.64 -0.0975946
0.65 -0.143461
0.66 -0.186668
0.67 -0.226312
0.68 -0.261606
0.69 -0.291912
0.7 -0.316756
0.71 -0.335852
0.72 -0.348813
0.73 -0.355905
0.74 -0.357646
0.75 -0.354555
0.76 -0.347308
0.77 -0.336712
0.78 -0.323673
0.79 -0.309163
0.8 -0.294184
0.81 -0.279725
0.82 -0.266813
0.83 -0.256417
0.84 -0.249183
0.85 -0.245685
0.86 -0.246333
0.87 -0.25136
0.88 -0.260818
0.89 -0.274581
0.9 -0.292352
0.91 -0.313678
0.92 -0.338019
0.93 -0.364706
0.94 -0.392777
0.95 -0.421411
0.96 -0.449783
0.97 -0.477092
0.98 -0.502593
0.99 -0.52562
1 -0.545609
1.01 -0.562118
1.02 -0.574822
1.03 -0.583241
1.04 -0.58767
1.05 -0.588228
1.06 -0.585158
1.07 -0.578805
1.08 -0.569606
1.09 -0.558062
1.1 -0.544724
1.11 -0.530168
1.12 -0.514978
1.13 -0.499758
1.14 -0.485089
1.15 -0.471458
1.16 -0.459293
1.17 -0.448955
1.18 -0.440739
1.19 -0.434866
1.2 -0.431486
1.21 -0.43068
1.22 -0.432466
1.23 -0.436931
1.24 -0.443901
1.25 -0.453149
1.26 -0.464481
1.27 -0.47767
1.28 -0.492458
1.29 -0.508561
1.3 -0.525678
1.31 -0.543489
1.32 -0.561664
1.33 -0.579851
1.34 -0.597672
1.35 -0.614791
1.36 -0.630886
1.37 -0.645652
1.38 -0.658813
1.39 -0.670127
1.4 -0.679397
1.41 -0.68648
1.42 -0.691293
1.43 -0.693772
1.44 -0.693897
1.45 -0.691953
1.46 -0.688159
1.47 -0.682803
1.48 -0.676235
1.49 -0.668858
1.5 -0.661111
1.51 -0.653457
1.52 -0.646362
1.53 -0.640288
1.54 -0.635789
1.55 -0.633133
1.56 -0.632602
1.57 -0.634388
1.58 -0.638587
1.59 -0.645193
1.6 -0.654096
1.61 -0.665086
1.62 -0.677867
1.63 -0.692063
1.64 -0.70728
1.65 -0.722954
1.66 -0.738598
1.67 -0.753758
1.68 -0.768023
1.69 -0.781051
1.7 -0.792585
1.71 -0.802469
1.72 -0.810655
1.73 -0.81721
1.74 -0.822243
1.75 -0.826104
1.76 -0.829197
1.77 -0.831942
1.78 -0.834783
1.79 -0.838161
1.8 -0.842479
1.81 -0.848081
1.82 -0.855219
1.83 -0.864034
1.84 -0.874605
1.85 -0.886792
1.86 -0.900249
1.87 -0.914581
1.88 -0.929301
1.89 -0.94385
1.9 -0.957638
1.91 -0.970082
1.92 -0.980646
1.93 -0.988884
1.94 -0.994415
1.95 -0.996987
1.96 -0.996833
1.97 -0.994235
1.98 -0.989676
1.99 -0.98383
2 -0.97753
2.01 -0.971731
2.02 -0.96745
2.03 -0.965707
2.04 -0.967475
2.05 -0.973897
2.06 -0.98521
2.07 -1.0016
2.08 -1.02289
2.09 -1.04845
2.1 -1.07719
2.11 -1.10754
2.12 -1.13749
2.13 -1.16455
2.14 -1.1859
2.15 -1.19752
2.16 -1.19636
2.17 -1.17913
2.18 -1.14258
2.19 -1.0837
2.2 -0.99989
2.21 -0.889106
2.22 -0.749994
2.23 -0.582005
2.24 -0.385489
2.25 -0.160357
2.26 0.0899031
2.27 0.361102
2.28 0.648823
2.29 0.947822
2.3 1.25215
2.31 1.55532
2.32 1.85049
2.33 2.13068
2.34 2.38898
2.35 2.61739
2.36 2.8092
2.37 2.96049
2.38 3.06712
2.39 3.12606
2.4 3.13555
2.41 3.09516
2.42 3.00579
2.43 2.8697
2.44 2.69042
2.45 2.47186
2.46 2.21927
2.47 1.94155
2.48 1.64591
2.49 1.33993
2.5 1.03125
2.51 0.727322
2.52 0.43521
2.53 0.161348
2.54 -0.0886446
2.55 -0.309858
2.56 -0.496413
2.57 -0.648325
2.58 -0.76465
2.59 -0.845618
2.6 -0.892561
2.61 -0.907815
2.62 -0.894578
2.63 -0.856748
2.64 -0.798746
2.65 -0.725324
2.66 -0.64095
2.67 -0.551501
2.68 -0.461593
2.69 -0.375347
2.7 -0.296351
2.71 -0.227571
2.72 -0.171286
2.73 -0.129071
2.74 -0.101799
2.75 -0.0896748
2.76 -0.0931002
2.77 -0.110513
2.78 -0.140148
2.79 -0.180309
2.8 -0.229125
2.81 -0.284662
2.82 -0.345018
2.83 -0.408412
2.84 -0.473246
2.85 -0.538159
2.86 -0.601973
2.87 -0.663792
2.88 -0.723131
2.89 -0.779667
2.9 -0.833238
2.91 -0.883781
2.92 -0.931267
2.93 -0.975638
2.94 -1.01675
2.95 -1.0543
2.96 -1.08771
2.97 -1.11604
2.98 -1.13859
2.99 -1.15421
3 -1.16158
3.01 -1.15927
3.02 -1.14577
3.03 -1.1196
3.04 -1.07937
3.05 -1.02388
3.06 -0.952
3.07 -0.862044
3.08 -0.755071
3.09 -0.63142
3.1 -0.491925
3.11 -0.337926
3.12 -0.171256
3.13 0.00578716
3.14 0.190488
3.15 0.379786
3.16 0.570355
3.17 0.758263
3.18 0.93984
3.19 1.11162
3.2 1.27029
3.21 1.41284
3.22 1.5366
3.23 1.63938
3.24 1.7195
3.25 1.77583
3.26 1.80783
3.27 1.81417
3.28 1.7965
3.29 1.75669
3.3 1.6965
3.31 1.61816
3.32 1.52421
3.33 1.41746
3.34 1.3009
3.35 1.17757
3.36 1.05055
3.37 0.922885
3.38 0.797662
3.39 0.677406
3.4 0.564325
3.41 0.460291
3.42 0.36681
3.43 0.285008
3.44 0.215631
3.45 0.159053
3.46 0.115292
3.47 0.0843673
3.48 0.0659197
3.49 0.0583755
3.5 0.0606493
3.51 0.0715105
3.52 0.0896318
3.53 0.113638
3.54 0.142152
3.55 0.173841
3.56 0.207456
3.57 0.241867
3.58 0.27602
3.59 0.309121
3.6 0.340629
3.61 0.370226
3.62 0.397821
3.63 0.423553
3.64 0.447781
3.65 0.471072
3.66 0.494179
3.67 0.518006
3.68 0.543803
3.69 0.572631
3.7 0.605613
3.71 0.643842
3.72 0.68832
3.73 0.739904
3.74 0.799253
3.75 0.866774
3.76 0.94258
3.77 1.02645
3.78 1.11822
3.79 1.21649
3.8 1.31969
3.81 1.42608
3.82 1.53354
3.83 1.6397
3.84 1.74195
3.85 1.83752
3.86 1.92356
3.87 1.99724
3.88 2.05501
3.89 2.09422
3.9 2.11326
3.91 2.11034
3.92 2.08415
3.93 2.0339
3.94 1.95936
3.95 1.86092
3.96 1.73956
3.97 1.59684
3.98 1.43439
3.99 1.25476
4 1.06204
4.01 0.859649
4.02 0.651201
4.03 0.440399
4.04 0.230918
4.05 0.0262997
4.06 -0.170164
4.07 -0.355523
4.08 -0.527054
4.09 -0.681719
4.1 -0.81912
4.11 -0.938471
4.12 -1.03955
4.13 -1.1227
4.14 -1.18876
4.15 -1.23899
4.16 -1.27505
4.17 -1.29885
4.18 -1.3125
4.19 -1.31771
4.2 -1.31736
4.21 -1.31348
4.22 -1.30782
4.23 -1.30183
4.24 -1.29661
4.25 -1.29288
4.26 -1.29094
4.27 -1.29068
4.28 -1.29159
4.29 -1.29277
4.3 -1.29292
4.31 -1.29061
4.32 -1.28427
4.33 -1.27229
4.34 -1.25307
4.35 -1.22512
4.36 -1.18715
4.37 -1.1381
4.38 -1.07724
4.39 -1.00362
4.4 -0.917404
4.41 -0.819519
4.42 -0.710831
4.43 -0.592586
4.44 -0.466369
4.45 -0.334064
4.46 -0.1978
4.47 -0.0598898
4.48 0.0772345
4.49 0.210906
4.5 0.338279
4.51 0.457165
4.52 0.56534
4.53 0.660779
4.54 0.741702
4.55 0.806603
4.56 0.854282
4.57 0.883858
4.58 0.89478
4.59 0.886555
4.6 0.85833
4.61 0.811858
4.62 0.7479
4.63 0.667484
4.64 0.571874
4.65 0.462536
4.66 0.341115
4.67 0.209395
4.68 0.0692714
4.69 -0.077289
4.7 -0.22847
4.71 -0.381766
4.72 -0.535191
4.73 -0.686831
4.74 -0.834867
4.75 -0.977604
4.76 -1.1135
4.77 -1.24117
4.78 -1.35946
4.79 -1.46738
4.8 -1.56345
4.81 -1.64765
4.82 -1.71994
4.83 -1.78029
4.84 -1.8289
4.85 -1.86615
4.86 -1.89258
4.87 -1.90888
4.88 -1.91583
4.89 -1.91429
4.9 -1.90483
4.91 -1.88851
4.92 -1.86639
4.93 -1.83922
4.94 -1.80758
4.95 -1.77194
4.96 -1.7326
4.97 -1.6897
4.98 -1.64321
4.99 -1.59295
5 -1.53842
5.01 -1.47905
5.02 -1.41448
5.03 -1.34413
5.04 -1.26741
5.05 -1.18377
5.06 -1.09274
5.07 -0.993967
5.08 -0.887278
5.09 -0.772669
5.1 -0.65023
5.11 -0.520095
5.12 -0.383475
5.13 -0.241294
5.14 -0.0946814
5.15 0.0550572
5.16 0.206469
5.17 0.357993
5.18 0.508
5.19 0.65484
5.2 0.796883
5.21 0.931927
5.22 1.05895
5.23 1.17668
5.24 1.284
5.25 1.38001
5.26 1.46401
5.27 1.5355
5.28 1.5942
5.29 1.64003
5.3 1.67307
5.31 1.69279
5.32 1.70024
5.33 1.69612
5.34 1.68102
5.35 1.65554
5.36 1.62033
5.37 1.57602
5.38 1.52323
5.39 1.46255
5.4 1.39452
5.41 1.31936
5.42 1.2377
5.43 1.15023
5.44 1.05738
5.45 0.959599
5.46 0.857336
5.47 0.751073
5.48 0.641324
5.49 0.528647
5.5 0.41365
5.51 0.296961
5.52 0.179355
5.53 0.0616652
5.54 -0.0553167
5.55 -0.170781
5.56 -0.283913
5.57 -0.393905
5.58 -0.499977
5.59 -0.601386
5.6 -0.697441
5.61 -0.787395
5.62 -0.87034
5.63 -0.946199
5.64 -1.01458
5.65 -1.07517
5.66 -1.12772
5.67 -1.17206
5.68 -1.20805
5.69 -1.23563
5.7 -1.25478
5.71 -1.26547
5.72 -1.2671
5.73 -1.26043
5.74 -1.24556
5.75 -1.22264
5.76 -1.19187
5.77 -1.1535
5.78 -1.10783
5.79 -1.05526
5.8 -0.996257
5.81 -0.931396
5.82 -0.861061
5.83 -0.786397
5.84 -0.708398
5.85 -0.628093
5.86 -0.5466
5.87 -0.46512
5.88 -0.38491
5.89 -0.307262
5.9 -0.233472
5.91 -0.164809
5.92 -0.102874
5.93 -0.0487524
5.94 -0.00321668
5.95 0.0329207
5.96 0.059027
5.97 0.0746673
5.98 0.0796161
5.99 0.0738631
6 0.0576122
6.01 0.0312739
6.02 -0.00485461
6.03 -0.0499881
6.04 -0.102728
6.05 -0.161991
6.06 -0.226602
6.07 -0.295314
6.08 -0.366839
6.09 -0.439866
6.1 -0.513081
6.11 -0.585184
6.12 -0.654823
6.13 -0.720474
6.14 -0.781085
6.15 -0.835474
6.16 -0.882489
6.17 -0.921001
6.18 -0.949905
6.19 -0.968117
6.2 -0.974583
6.21 -0.968281
6.22 -0.948189
6.23 -0.912229
6.24 -0.8607
6.25 -0.792941
6.26 -0.70845
6.27 -0.606926
6.28 -0.488307
6.29 -0.352798
6.3 -0.200911
6.31 -0.033485
6.32 0.148294
6.33 0.343642
6.34 0.549743
6.35 0.764153
6.36 0.984299
6.37 1.20737
6.38 1.43036
6.39 1.65018
6.4 1.86369
6.41 2.06782
6.42 2.25965
6.43 2.43555
6.44 2.59335
6.45 2.73161
6.46 2.84893
6.47 2.94445
6.48 3.01783
6.49 3.06933
6.5 3.09974
6.51 3.11036
6.52 3.10297
6.53 3.07926
6.54 3.04191
6.55 2.99436
6.56 2.93943
6.57 2.87988
6.58 2.81838
6.59 2.75734
6.6 2.69882
6.61 2.64448
6.62 2.59552
6.63 2.55273
6.64 2.51646
6.65 2.48582
6.66 2.45982
6.67 2.43699
6.68 2.41553
6.69 2.3933
6.7 2.36801
6.71 2.33726
6.72 2.29869
6.73 2.25
6.74 2.18814
6.75 2.11233
6.76 2.02136
6.77 1.91452
6.78 1.7916
6.79 1.65293
6.8 1.49935
6.81 1.33222
6.82 1.15336
6.83 0.964982
6.84 0.769358
6.85 0.569966
6.86 0.369876
6.87 0.172135
6.88 -0.0202466
6.89 -0.204382
6.9 -0.377585
6.91 -0.537435
6.92 -0.681836
6.93 -0.809058
6.94 -0.9167
6.95 -1.00431
6.96 -1.07196
6.97 -1.11964
6.98 -1.14769
6.99 -1.1568
7 -1.14798
7.01 -1.12253
7.02 -1.08193
7.03 -1.02789
7.04 -0.961895
7.05 -0.886072
7.06 -0.802958
7.07 -0.714633
7.08 -0.623187
7.09 -0.530697
7.1 -0.43921
7.11 -0.35072
7.12 -0.267155
7.13 -0.190356
7.14 -0.122294
7.15 -0.0651063
7.16 -0.0197185
7.17 0.0125923
7.18 0.0307395
7.19 0.0338503
7.2 0.0212885
7.21 -0.00732458
7.22 -0.0520905
7.23 -0.112819
7.24 -0.189114
7.25 -0.281095
7.26 -0.38644
7.27 -0.5037
7.28 -0.631167
7.29 -0.766896
7.3 -0.908747
7.31 -1.05443
7.32 -1.20155
7.33 -1.34768
7.34 -1.49038
7.35 -1.62672
7.36 -1.75465
7.37 -1.87223
7.38 -1.97765
7.39 -2.06938
7.4 -2.1462
7.41 -2.20716
7.42 -2.25167
7.43 -2.27941
7.44 -2.29038
7.45 -2.28398
7.46 -2.26132
7.47 -2.22359
7.48 -2.17176
7.49 -2.10692
7.5 -2.03021
7.51 -1.94288
7.52 -1.84614
7.53 -1.74123
7.54 -1.62932
7.55 -1.51138
7.56 -1.38858
7.57 -1.26216
7.58 -1.13309
7.59 -1.00227
7.6 -0.870594
7.61 -0.738928
7.62 -0.608159
7.63 -0.479194
7.64 -0.352979
7.65 -0.230628
7.66 -0.113464
7.67 -0.00237777
7.68 0.101468
7.69 0.196879
7.7 0.282652
7.71 0.357595
7.72 0.42056
7.73 0.470471
7.74 0.506363
7.75 0.52728
7.76 0.531509
7.77 0.519745
7.78 0.491805
7.79 0.447753
7.8 0.387906
7.81 0.312838
7.82 0.223378
7.83 0.120595
7.84 0.00578324
7.85 -0.119562
7.86 -0.254294
7.87 -0.395865
7.88 -0.542277
7.89 -0.691543
7.9 -0.841654
7.91 -0.990615
7.92 -1.13648
7.93 -1.27738
7.94 -1.41155
7.95 -1.53737
7.96 -1.65273
7.97 -1.75657
7.98 -1.84805
7.99 -1.92632
8 -1.99074
8.01 -2.04088
8.02 -2.07653
8.03 -2.09771
8.04 -2.10466
8.05 -2.09784
8.06 -2.07741
8.07 -2.04441
8.08 -2.00046
8.09 -1.94686
8.1 -1.88505
8.11 -1.8166
8.12 -1.74321
8.13 -1.66663
8.14 -1.58864
8.15 -1.51106
8.16 -1.43572
8.17 -1.36457
8.18 -1.29897
8.19 -1.24025
8.2 -1.1895
8.21 -1.14756
8.22 -1.11497
8.23 -1.09195
8.24 -1.07842
8.25 -1.07393
8.26 -1.07778
8.27 -1.08918
8.28 -1.10608
8.29 -1.12676
8.3 -1.14928
8.31 -1.1715
8.32 -1.19121
8.33 -1.20608
8.34 -1.2138
8.35 -1.21213
8.36 -1.19888
8.37 -1.17089
8.38 -1.12718
8.39 -1.06631
8.4 -0.987012
8.41 -0.888288
8.42 -0.769437
8.43 -0.630038
8.44 -0.469949
8.45 -0.289287
8.46 -0.0884181
8.47 0.13319
8.48 0.37392
8.49 0.632325
8.5 0.907238
8.51 1.19734
8.52 1.5012
8.53 1.81721
8.54 2.14366
8.55 2.4787
8.56 2.82031
8.57 3.1664
8.58 3.51433
8.59 3.86137
8.6 4.20475
8.61 4.54152
8.62 4.86853
8.63 5.18248
8.64 5.47994
8.65 5.75736
8.66 6.01117
8.67 6.23696
8.68 6.4301
8.69 6.58883
8.7 6.71019
8.71 6.79157
8.72 6.83081
8.73 6.82629
8.74 6.77698
8.75 6.68251
8.76 6.54321
8.77 6.35966
8.78 6.13138
8.79 5.86408
8.8 5.56108
8.81 5.22626
8.82 4.86402
8.83 4.47918
8.84 4.07685
8.85 3.66229
8.86 3.24082
8.87 2.81765
8.88 2.39842
8.89 1.98783
8.9 1.58996
8.91 1.20836
8.92 0.845961
8.93 0.50503
8.94 0.187148
8.95 -0.106784
8.96 -0.376515
8.97 -0.622403
8.98 -0.844021
8.99 -1.04382
9 -1.22404
9.01 -1.38667
9.02 -1.53384
9.03 -1.66769
9.04 -1.79027
9.05 -1.90348
9.06 -2.00897
9.07 -2.10809
9.08 -2.20164
9.09 -2.29032
9.1 -2.37453
9.11 -2.45411
9.12 -2.52859
9.13 -2.59722
9.14 -2.65907
9.15 -2.71303
9.16 -2.75794
9.17 -2.79264
9.18 -2.81567
9.19 -2.8257
9.2 -2.82261
9.21 -2.80592
9.22 -2.77543
9.23 -2.73124
9.24 -2.67375
9.25 -2.60364
9.26 -2.5219
9.27 -2.42974
9.28 -2.32849
9.29 -2.2195
9.3 -2.10512
9.31 -1.98714
9.32 -1.86739
9.33 -1.74764
9.34 -1.62959
9.35 -1.51484
9.36 -1.40485
9.37 -1.30091
9.38 -1.20415
9.39 -1.1162
9.4 -1.0372
9.41 -0.967674
9.42 -0.907949
9.43 -0.85821
9.44 -0.81848
9.45 -0.788641
9.46 -0.768449
9.47 -0.757536
9.48 -0.75543
9.49 -0.762033
9.5 -0.776247
9.51 -0.797143
9.52 -0.823865
9.53 -0.85548
9.54 -0.89098
9.55 -0.929286
9.56 -0.96926
9.57 -1.00971
9.58 -1.04941
9.59 -1.08695
9.6 -1.12097
9.61 -1.15031
9.62 -1.17379
9.63 -1.19032
9.64 -1.19889
9.65 -1.19863
9.66 -1.18884
9.67 -1.16899
9.68 -1.13876
9.69 -1.09771
9.7 -1.0458
9.71 -0.98397
9.72 -0.912847
9.73 -0.833287
9.74 -0.746344
9.75 -0.653253
9.76 -0.5554
9.77 -0.454292
9.78 -0.351517
9.79 -0.248735
9.8 -0.147819
9.81 -0.0503425
9.82 0.0421874
9.83 0.128386
9.84 0.207021
9.85 0.277041
9.86 0.337601
9.87 0.388078
9.88 0.428088
9.89 0.457492
9.9 0.475583
9.91 0.483607
9.92 0.482223
9.93 0.472297
9.94 0.454904
9.95 0.431306
9.96 0.402931
9.97 0.371346
9.98 0.338229
9.99 0.305344
10 0.274754
10.01 0.248353
10.02 0.227907
10.03 0.215159
10.04 0.211757
10.05 0.219212
10.06 0.238867
10.07 0.27186
10.08 0.319088
10.09 0.381175
10.1 0.459182
10.11 0.55284
10.12 0.661217
10.13 0.783528
10.14 0.918624
10.15 1.06499
10.16 1.22077
10.17 1.38375
10.18 1.55145
10.19 1.72111
10.2 1.88962
10.21 2.05343
10.22 2.20937
10.23 2.35421
10.24 2.48476
10.25 2.59799
10.26 2.69106
10.27 2.76144
10.28 2.80693
10.29 2.82576
10.3 2.81613
10.31 2.77577
10.32 2.70637
10.33 2.60829
10.34 2.48246
10.35 2.33032
10.36 2.1538
10.37 1.95531
10.38 1.73764
10.39 1.50391
10.4 1.2575
10.41 1.00154
10.42 0.740679
10.43 0.478573
10.44 0.21878
10.45 -0.0353175
10.46 -0.280581
10.47 -0.514184
10.48 -0.733661
10.49 -0.936954
10.5 -1.12244
10.51 -1.28764
10.52 -1.43278
10.53 -1.55799
10.54 -1.66348
10.55 -1.74987
10.56 -1.81807
10.57 -1.86931
10.58 -1.90499
10.59 -1.92672
10.6 -1.93615
10.61 -1.93454
10.62 -1.9239
10.63 -1.90611
10.64 -1.88253
10.65 -1.85436
10.66 -1.82255
10.67 -1.78781
10.68 -1.75056
10.69 -1.71099
10.7 -1.66901
10.71 -1.62418
10.72 -1.57585
10.73 -1.5234
10.74 -1.46597
10.75 -1.40263
10.76 -1.33241
10.77 -1.2544
10.78 -1.16776
10.79 -1.07177
10.8 -0.96593
10.81 -0.849761
10.82 -0.722791
10.83 -0.586002
10.84 -0.440036
10.85 -0.285855
10.86 -0.124739
10.87 0.0417298
10.88 0.211687
10.89 0.383019
10.9 0.553405
10.91 0.720351
10.92 0.880579
10.93 1.03175
10.94 1.17126
10.95 1.29659
10.96 1.40537
10.97 1.49543
10.98 1.56487
10.99 1.6121
11 1.63586
11.01 1.63527
11.02 1.60818
11.03 1.55587
11.04 1.47912
11.05 1.37873
11.06 1.2559
11.07 1.11214
11.08 0.949281
11.09 0.769428
11.1 0.574891
11.11 0.368152
11.12 0.151455
11.13 -0.0720616
11.14 -0.29944
11.15 -0.528052
11.16 -0.755353
11.17 -0.978922
11.18 -1.19649
11.19 -1.40596
11.2 -1.60544
11.21 -1.79324
11.22 -1.96737
11.23 -2.12631
11.24 -2.26967
11.25 -2.39666
11.26 -2.50667
11.27 -2.59927
11.28 -2.67419
11.29 -2.73132
11.3 -2.77065
11.31 -2.79233
11.32 -2.79625
11.33 -2.78203
11.34 -2.75116
11.35 -2.70411
11.36 -2.64142
11.37 -2.56364
11.38 -2.47139
11.39 -2.3653
11.4 -2.24603
11.41 -2.11425
11.42 -1.97063
11.43 -1.81507
11.44 -1.6492
11.45 -1.47372
11.46 -1.28932
11.47 -1.0967
11.48 -0.896538
11.49 -0.689537
11.5 -0.476396
11.51 -0.257831
11.52 -0.034583
11.53 0.192781
11.54 0.423134
11.55 0.655515
11.56 0.888931
11.57 1.12229
11.58 1.35439
11.59 1.58392
11.6 1.80943
11.61 2.02935
11.62 2.24201
11.63 2.44501
11.64 2.6365
11.65 2.81476
11.66 2.97779
11.67 3.12361
11.68 3.25026
11.69 3.35588
11.7 3.43877
11.71 3.49739
11.72 3.53045
11.73 3.53594
11.74 3.51291
11.75 3.46231
11.76 3.38425
11.77 3.27928
11.78 3.14829
11.79 2.99261
11.8 2.81391
11.81 2.61422
11.82 2.39584
11.83 2.16109
11.84 1.91247
11.85 1.65388
11.86 1.38828
11.87 1.11867
11.88 0.84793
11.89 0.57886
11.9 0.314068
11.91 0.0559538
11.92 -0.193329
11.93 -0.43183
11.94 -0.656929
11.95 -0.86819
11.96 -1.06459
11.97 -1.24533
11.98 -1.40983
11.99 -1.55767
12 -1.68858
12.01 -1.80237
12.02 -1.89891
12.03 -1.9781
12.04 -2.03858
12.05 -2.08126
12.06 -2.10615
12.07 -2.11306
12.08 -2.10175
12.09 -2.07199
12.1 -2.02356
12.11 -1.95631
12.12 -1.8702
12.13 -1.76529
12.14 -1.64087
12.15 -1.49802
12.16 -1.33808
12.17 -1.16215
12.18 -0.971668
12.19 -0.7684
12.2 -0.554427
12.21 -0.332142
12.22 -0.104212
12.23 0.126458
12.24 0.356637
12.25 0.582734
12.26 0.801521
12.27 1.00978
12.28 1.20442
12.29 1.38252
12.3 1.54147
12.31 1.67897
12.32 1.79309
12.33 1.88237
12.34 1.9452
12.35 1.9801
12.36 1.98867
12.37 1.97147
12.38 1.9295
12.39 1.86414
12.4 1.77717
12.41 1.67062
12.42 1.54679
12.43 1.4081
12.44 1.25703
12.45 1.09566
12.46 0.927372
12.47 0.754534
12.48 0.579344
12.49 0.403796
12.5 0.22966
12.51 0.0584608
12.52 -0.108519
12.53 -0.270235
12.54 -0.425859
12.55 -0.574233
12.56 -0.715278
12.57 -0.848713
12.58 -0.974257
12.59 -1.09165
12.6 -1.20061
12.61 -1.30082
12.62 -1.39185
12.63 -1.47318
12.64 -1.54419
12.65 -1.60342
12.66 -1.65024
12.67 -1.68394
12.68 -1.70345
12.69 -1.70766
12.7 -1.69548
12.71 -1.66587
12.72 -1.6179
12.73 -1.55079
12.74 -1.46398
12.75 -1.35637
12.76 -1.22797
12.77 -1.08003
12.78 -0.913364
12.79 -0.729157
12.8 -0.529004
12.81 -0.314893
12.82 -0.0891853
12.83 0.14541
12.84 0.38588
12.85 0.628935
12.86 0.870733
12.87 1.10755
12.88 1.33578
12.89 1.55184
12.9 1.7523
12.91 1.93392
12.92 2.09377
12.93 2.22925
12.94 2.33817
12.95 2.41859
12.96 2.46727
12.97 2.48576
12.98 2.47401
12.99 2.43254
13 2.36236
13.01 2.26499
13.02 2.14236
13.03 1.99682
13.04 1.83103
13.05 1.64791
13.06 1.44975
13.07 1.24095
13.08 1.02485
13.09 0.804625
13.1 0.583319
13.11 0.363802
13.12 0.148708
13.13 -0.0595917
13.14 -0.259018
13.15 -0.447801
13.16 -0.623708
13.17 -0.785918
13.18 -0.933904
13.19 -1.0671
13.2 -1.18514
13.21 -1.28786
13.22 -1.37521
13.23 -1.44728
13.24 -1.50419
13.25 -1.54613
13.26 -1.57266
13.27 -1.58403
13.28 -1.58103
13.29 -1.56381
13.3 -1.53259
13.31 -1.48759
13.32 -1.42909
13.33 -1.35746
13.34 -1.27322
13.35 -1.17703
13.36 -1.06947
13.37 -0.951466
13.38 -0.824991
13.39 -0.691671
13.4 -0.553378
13.41 -0.412224
13.42 -0.270531
13.43 -0.130792
13.44 0.00437537
13.45 0.132294
13.46 0.250166
13.47 0.354406
13.48 0.443371
13.49 0.51493
13.5 0.567285
13.51 0.599028
13.52 0.609205
13.53 0.597355
13.54 0.563538
