# xPDFsuite Configuration #
[PDF]
wavelength = 0.1
dataformat = QA
inputfile = x0_20171023-032859__150.0K_001.chi
backgroundfile = kapton_1mmOD_20171019-202628_0ea754_001_fit2d.chi
mode = xray
bgscale = 1.0
composition = SrFe2As2
outputtype = gr
qmaxinst = 25.0
qmin = 0.4
qmax = 25.0
rmax = 100.0
rmin = 0.0
rstep = 0.01
rpoly = 0.7

[Misc]
inputdir = /home/ben/scatteringdata/2017_03_NOMAD-C4/xray/OctoberBeamtime/x0/x0_8/chi_fit2d
savedir = /home/ben/scatteringdata/2017_03_NOMAD-C4/xray/OctoberBeamtime/x0/x0_8/pdf_fit2d
backgroundfilefull = /home/ben/scatteringdata/2017_03_NOMAD-C4/xray/OctoberBeamtime/kapton_1mmOD_20171019-202628_0ea754_001_fit2d.chi

#### start data
#S 1
#L r($\AA$)  G($\AA^{-2}$)
0 0
0.01 0.000354083
0.02 0.000684677
0.03 0.000971405
0.04 0.00119647
0.05 0.00134554
0.06 0.00140834
0.07 0.00137888
0.08 0.00125526
0.09 0.00103921
0.1 0.000735328
0.11 0.000345252
0.12 -0.000118807
0.13 -0.000648013
0.14 -0.0012353
0.15 -0.0018741
0.16 -0.00255773
0.17 -0.0032783
0.18 -0.00402491
0.19 -0.00478129
0.2 -0.00552306
0.21 -0.00620962
0.22 -0.00678476
0.23 -0.00717927
0.24 -0.00730244
0.25 -0.00704264
0.26 -0.00626744
0.27 -0.00482523
0.28 -0.00254846
0.29 0.000741435
0.3 0.00522731
0.31 0.0111403
0.32 0.0186828
0.33 0.0279213
0.34 0.0389508
0.35 0.0518166
0.36 0.066504
0.37 0.0829293
0.38 0.100933
0.39 0.120274
0.4 0.140633
0.41 0.161611
0.42 0.18269
0.43 0.203287
0.44 0.22281
0.45 0.240638
0.46 0.256146
0.47 0.268723
0.48 0.277795
0.49 0.282855
0.5 0.283476
0.51 0.279332
0.52 0.26983
0.53 0.255324
0.54 0.23593
0.55 0.211907
0.56 0.183659
0.57 0.15172
0.58 0.116739
0.59 0.0794609
0.6 0.0406964
0.61 0.00129705
0.62 -0.0378057
0.63 -0.0757265
0.64 -0.111709
0.65 -0.145085
0.66 -0.175305
0.67 -0.201958
0.68 -0.224785
0.69 -0.243691
0.7 -0.258739
0.71 -0.270151
0.72 -0.278149
0.73 -0.283351
0.74 -0.28646
0.75 -0.288139
0.76 -0.289083
0.77 -0.289983
0.78 -0.29149
0.79 -0.294191
0.8 -0.298575
0.81 -0.305016
0.82 -0.313835
0.83 -0.32515
0.84 -0.338769
0.85 -0.354471
0.86 -0.37191
0.87 -0.39063
0.88 -0.410095
0.89 -0.429714
0.9 -0.44887
0.91 -0.466954
0.92 -0.483351
0.93 -0.497421
0.94 -0.508873
0.95 -0.517422
0.96 -0.522905
0.97 -0.525287
0.98 -0.524662
0.99 -0.521237
1 -0.515329
1.01 -0.507336
1.02 -0.497719
1.03 -0.486935
1.04 -0.475615
1.05 -0.464246
1.06 -0.453271
1.07 -0.443068
1.08 -0.433934
1.09 -0.426078
1.1 -0.419614
1.11 -0.414565
1.12 -0.410871
1.13 -0.408471
1.14 -0.407091
1.15 -0.406493
1.16 -0.406449
1.17 -0.406749
1.18 -0.407219
1.19 -0.407739
1.2 -0.408259
1.21 -0.408806
1.22 -0.409487
1.23 -0.410517
1.24 -0.412173
1.25 -0.414759
1.26 -0.418618
1.27 -0.424096
1.28 -0.431519
1.29 -0.441166
1.3 -0.453245
1.31 -0.46787
1.32 -0.485044
1.33 -0.504727
1.34 -0.526648
1.35 -0.550298
1.36 -0.575164
1.37 -0.600638
1.38 -0.626039
1.39 -0.650649
1.4 -0.673739
1.41 -0.694607
1.42 -0.712614
1.43 -0.727136
1.44 -0.737576
1.45 -0.743912
1.46 -0.746079
1.47 -0.744188
1.48 -0.738525
1.49 -0.729539
1.5 -0.717823
1.51 -0.704085
1.52 -0.689116
1.53 -0.673755
1.54 -0.658942
1.55 -0.645487
1.56 -0.634089
1.57 -0.625329
1.58 -0.619638
1.59 -0.61728
1.6 -0.618337
1.61 -0.622715
1.62 -0.630149
1.63 -0.640222
1.64 -0.652497
1.65 -0.66616
1.66 -0.680506
1.67 -0.694859
1.68 -0.708585
1.69 -0.72114
1.7 -0.732099
1.71 -0.741185
1.72 -0.748287
1.73 -0.753467
1.74 -0.756889
1.75 -0.759043
1.76 -0.760518
1.77 -0.761944
1.78 -0.763998
1.79 -0.767352
1.8 -0.772632
1.81 -0.780364
1.82 -0.790937
1.83 -0.804568
1.84 -0.821384
1.85 -0.84116
1.86 -0.863311
1.87 -0.887196
1.88 -0.912013
1.89 -0.936838
1.9 -0.960684
1.91 -0.982555
1.92 -1.00151
1.93 -1.01674
1.94 -1.0275
1.95 -1.03321
1.96 -1.03408
1.97 -1.03036
1.98 -1.02262
1.99 -1.01174
2 -0.998847
2.01 -0.985301
2.02 -0.972594
2.03 -0.962279
2.04 -0.9559
2.05 -0.955282
2.06 -0.961158
2.07 -0.97419
2.08 -0.994574
2.09 -1.02196
2.1 -1.05542
2.11 -1.09339
2.12 -1.1337
2.13 -1.1736
2.14 -1.20985
2.15 -1.23795
2.16 -1.25406
2.17 -1.25416
2.18 -1.23422
2.19 -1.19049
2.2 -1.11964
2.21 -1.01895
2.22 -0.886525
2.23 -0.721367
2.24 -0.523539
2.25 -0.292594
2.26 -0.0322273
2.27 0.252998
2.28 0.558235
2.29 0.877654
2.3 1.20459
2.31 1.53175
2.32 1.85138
2.33 2.15559
2.34 2.43655
2.35 2.68525
2.36 2.89406
2.37 3.0585
2.38 3.17388
2.39 3.23681
2.4 3.24533
2.41 3.19896
2.42 3.09881
2.43 2.94746
2.44 2.74896
2.45 2.50781
2.46 2.23003
2.47 1.92555
2.48 1.60254
2.49 1.26947
2.5 0.934906
2.51 0.607149
2.52 0.29403
2.53 0.00264564
2.54 -0.260854
2.55 -0.491135
2.56 -0.681777
2.57 -0.833084
2.58 -0.944231
2.59 -1.01571
2.6 -1.04924
2.61 -1.04766
2.62 -1.01478
2.63 -0.955154
2.64 -0.873915
2.65 -0.776541
2.66 -0.668273
2.67 -0.555722
2.68 -0.444126
2.69 -0.338157
2.7 -0.241867
2.71 -0.158587
2.72 -0.090863
2.73 -0.0404288
2.74 -0.00821473
2.75 0.00561222
2.76 0.000611025
2.77 -0.0213166
2.78 -0.0580475
2.79 -0.107554
2.8 -0.167603
2.81 -0.235877
2.82 -0.310089
2.83 -0.388078
2.84 -0.467892
2.85 -0.547841
2.86 -0.626436
2.87 -0.702511
2.88 -0.775398
2.89 -0.844628
2.9 -0.90993
2.91 -0.971173
2.92 -1.0283
2.93 -1.08123
2.94 -1.12982
2.95 -1.1738
2.96 -1.21256
2.97 -1.24514
2.98 -1.27086
2.99 -1.28854
3 -1.29678
3.01 -1.29405
3.02 -1.27872
3.03 -1.24913
3.04 -1.20374
3.05 -1.14114
3.06 -1.06
3.07 -0.958279
3.08 -0.837049
3.09 -0.696532
3.1 -0.537502
3.11 -0.361304
3.12 -0.169858
3.13 0.0343676
3.14 0.24839
3.15 0.468785
3.16 0.691762
3.17 0.912842
3.18 1.1276
3.19 1.33185
3.2 1.5215
3.21 1.69274
3.22 1.84211
3.23 1.96664
3.24 2.06392
3.25 2.13219
3.26 2.17039
3.27 2.1764
3.28 2.15189
3.29 2.09881
3.3 2.01913
3.31 1.9154
3.32 1.79072
3.33 1.64862
3.34 1.49298
3.35 1.32787
3.36 1.15748
3.37 0.986086
3.38 0.818142
3.39 0.657382
3.4 0.507147
3.41 0.370334
3.42 0.249326
3.43 0.145946
3.44 0.0614256
3.45 -0.00360666
3.46 -0.0491183
3.47 -0.0751596
3.48 -0.0824714
3.49 -0.0737173
3.5 -0.0509118
3.51 -0.0163702
3.52 0.0273821
3.53 0.0777044
3.54 0.131937
3.55 0.187498
3.56 0.241971
3.57 0.293136
3.58 0.338724
3.59 0.377631
3.6 0.40895
3.61 0.432254
3.62 0.447601
3.63 0.455538
3.64 0.457068
3.65 0.453618
3.66 0.446979
3.67 0.439235
3.68 0.432964
3.69 0.430677
3.7 0.434788
3.71 0.447605
3.72 0.471227
3.73 0.50744
3.74 0.557636
3.75 0.622729
3.76 0.703094
3.77 0.798523
3.78 0.908983
3.79 1.03226
3.8 1.1659
3.81 1.30723
3.82 1.45308
3.83 1.5999
3.84 1.74383
3.85 1.88088
3.86 2.00696
3.87 2.1181
3.88 2.20953
3.89 2.27762
3.9 2.32024
3.91 2.33509
3.92 2.32055
3.93 2.27575
3.94 2.20055
3.95 2.09561
3.96 1.96234
3.97 1.80287
3.98 1.61944
3.99 1.41534
4 1.19571
4.01 0.964798
4.02 0.727028
4.03 0.486881
4.04 0.248745
4.05 0.0167915
4.06 -0.205148
4.07 -0.413688
4.08 -0.605737
4.09 -0.777863
4.1 -0.929752
4.11 -1.06061
4.12 -1.17029
4.13 -1.25927
4.14 -1.32858
4.15 -1.37976
4.16 -1.41471
4.17 -1.43564
4.18 -1.44496
4.19 -1.44459
4.2 -1.43781
4.21 -1.42689
4.22 -1.4138
4.23 -1.4002
4.24 -1.38734
4.25 -1.37607
4.26 -1.36676
4.27 -1.35936
4.28 -1.3534
4.29 -1.34796
4.3 -1.3417
4.31 -1.3331
4.32 -1.32053
4.33 -1.30224
4.34 -1.27653
4.35 -1.2418
4.36 -1.19662
4.37 -1.13984
4.38 -1.0706
4.39 -0.987856
4.4 -0.891737
4.41 -0.783176
4.42 -0.663086
4.43 -0.532797
4.44 -0.394033
4.45 -0.248864
4.46 -0.0996573
4.47 0.0509897
4.48 0.200319
4.49 0.345269
4.5 0.48255
4.51 0.609638
4.52 0.723938
4.53 0.823084
4.54 0.904996
4.55 0.967931
4.56 1.01053
4.57 1.03183
4.58 1.03132
4.59 1.00858
4.6 0.962882
4.61 0.896545
4.62 0.81079
4.63 0.707181
4.64 0.58759
4.65 0.454136
4.66 0.309139
4.67 0.155058
4.68 -0.00556768
4.69 -0.170179
4.7 -0.336173
4.71 -0.500854
4.72 -0.661972
4.73 -0.817478
4.74 -0.965558
4.75 -1.10466
4.76 -1.23354
4.77 -1.3512
4.78 -1.457
4.79 -1.55057
4.8 -1.63103
4.81 -1.69917
4.82 -1.75566
4.83 -1.80112
4.84 -1.83633
4.85 -1.86216
4.86 -1.87954
4.87 -1.88942
4.88 -1.89272
4.89 -1.89026
4.9 -1.88258
4.91 -1.87041
4.92 -1.85433
4.93 -1.83458
4.94 -1.81124
4.95 -1.78421
4.96 -1.75325
4.97 -1.71795
4.98 -1.67784
4.99 -1.63232
5 -1.58058
5.01 -1.5218
5.02 -1.45572
5.03 -1.38183
5.04 -1.29974
5.05 -1.20922
5.06 -1.11017
5.07 -1.0027
5.08 -0.887096
5.09 -0.763846
5.1 -0.633523
5.11 -0.496772
5.12 -0.355085
5.13 -0.209634
5.14 -0.0616912
5.15 0.0874005
5.16 0.23626
5.17 0.383501
5.18 0.527759
5.19 0.667725
5.2 0.802162
5.21 0.929303
5.22 1.04861
5.23 1.15922
5.24 1.26037
5.25 1.35145
5.26 1.43196
5.27 1.50151
5.28 1.55984
5.29 1.60678
5.3 1.64223
5.31 1.66543
5.32 1.67702
5.33 1.67731
5.34 1.66647
5.35 1.64475
5.36 1.61241
5.37 1.56979
5.38 1.51727
5.39 1.45529
5.4 1.38435
5.41 1.30464
5.42 1.21701
5.43 1.12242
5.44 1.02165
5.45 0.915514
5.46 0.804873
5.47 0.690622
5.48 0.57367
5.49 0.454929
5.5 0.335299
5.51 0.215674
5.52 0.0969681
5.53 -0.0200748
5.54 -0.13478
5.55 -0.24655
5.56 -0.354867
5.57 -0.459292
5.58 -0.559453
5.59 -0.65504
5.6 -0.745788
5.61 -0.831364
5.62 -0.911273
5.63 -0.985601
5.64 -1.05408
5.65 -1.1164
5.66 -1.17218
5.67 -1.22101
5.68 -1.2624
5.69 -1.29582
5.7 -1.3207
5.71 -1.33644
5.72 -1.34166
5.73 -1.33657
5.74 -1.32075
5.75 -1.29387
5.76 -1.25577
5.77 -1.20647
5.78 -1.14621
5.79 -1.07546
5.8 -0.994941
5.81 -0.905623
5.82 -0.808313
5.83 -0.705021
5.84 -0.59755
5.85 -0.487756
5.86 -0.377612
5.87 -0.269152
5.88 -0.16442
5.89 -0.0654106
5.9 0.0259896
5.91 0.108053
5.92 0.178634
5.93 0.236599
5.94 0.28136
5.95 0.312303
5.96 0.329124
5.97 0.331834
5.98 0.320734
5.99 0.296399
6 0.259642
6.01 0.211474
6.02 0.15275
6.03 0.0847976
6.04 0.00944599
6.05 -0.0719264
6.06 -0.157953
6.07 -0.247305
6.08 -0.338707
6.09 -0.430944
6.1 -0.52286
6.11 -0.61335
6.12 -0.70127
6.13 -0.785299
6.14 -0.864518
6.15 -0.937795
6.16 -1.00393
6.17 -1.06165
6.18 -1.10958
6.19 -1.14624
6.2 -1.17011
6.21 -1.17958
6.22 -1.173
6.23 -1.14735
6.24 -1.10244
6.25 -1.03702
6.26 -0.950051
6.27 -0.840846
6.28 -0.709095
6.29 -0.554943
6.3 -0.379039
6.31 -0.182571
6.32 0.0327161
6.33 0.265469
6.34 0.511622
6.35 0.767563
6.36 1.02949
6.37 1.29331
6.38 1.55472
6.39 1.80938
6.4 2.05299
6.41 2.28146
6.42 2.49103
6.43 2.67709
6.44 2.83727
6.45 2.97034
6.46 3.07515
6.47 3.15139
6.48 3.19951
6.49 3.22079
6.5 3.21722
6.51 3.19147
6.52 3.14675
6.53 3.08629
6.54 3.01438
6.55 2.93578
6.56 2.85448
6.57 2.77428
6.58 2.69858
6.59 2.63031
6.6 2.57178
6.61 2.52462
6.62 2.48968
6.63 2.46731
6.64 2.45716
6.65 2.45691
6.66 2.46438
6.67 2.47682
6.68 2.49106
6.69 2.50364
6.7 2.51098
6.71 2.50948
6.72 2.49572
6.73 2.46648
6.74 2.41755
6.75 2.34812
6.76 2.2568
6.77 2.14288
6.78 2.00638
6.79 1.84805
6.8 1.66935
6.81 1.47237
6.82 1.25979
6.83 1.03477
6.84 0.800506
6.85 0.561685
6.86 0.322376
6.87 0.0865596
6.88 -0.141898
6.89 -0.359345
6.9 -0.562441
6.91 -0.748229
6.92 -0.9142
6.93 -1.05834
6.94 -1.17781
6.95 -1.27225
6.96 -1.34197
6.97 -1.38711
6.98 -1.40829
6.99 -1.40653
7 -1.38324
7.01 -1.34014
7.02 -1.27922
7.03 -1.20267
7.04 -1.11244
7.05 -1.01124
7.06 -0.90219
7.07 -0.787876
7.08 -0.67087
7.09 -0.553705
7.1 -0.438852
7.11 -0.328697
7.12 -0.225511
7.13 -0.131435
7.14 -0.0487529
7.15 0.0200896
7.16 0.0741971
7.17 0.112226
7.18 0.133083
7.19 0.135946
7.2 0.120282
7.21 0.0858723
7.22 0.0328169
7.23 -0.0384499
7.24 -0.127266
7.25 -0.233536
7.26 -0.354471
7.27 -0.488297
7.28 -0.632979
7.29 -0.786257
7.3 -0.94569
7.31 -1.10871
7.32 -1.27266
7.33 -1.43489
7.34 -1.59276
7.35 -1.74306
7.36 -1.88367
7.37 -2.01252
7.38 -2.12769
7.39 -2.22756
7.4 -2.31082
7.41 -2.37644
7.42 -2.42375
7.43 -2.45235
7.44 -2.46219
7.45 -2.45246
7.46 -2.42426
7.47 -2.37883
7.48 -2.31709
7.49 -2.24012
7.5 -2.14913
7.51 -2.04541
7.52 -1.93031
7.53 -1.80523
7.54 -1.67155
7.55 -1.53047
7.56 -1.38351
7.57 -1.23235
7.58 -1.07833
7.59 -0.922786
7.6 -0.76705
7.61 -0.612428
7.62 -0.460225
7.63 -0.311744
7.64 -0.168285
7.65 -0.0313277
7.66 0.0974554
7.67 0.217172
7.68 0.326584
7.69 0.424497
7.7 0.509777
7.71 0.58137
7.72 0.638321
7.73 0.679792
7.74 0.705085
7.75 0.713519
7.76 0.703584
7.77 0.676379
7.78 0.631964
7.79 0.570603
7.8 0.492772
7.81 0.399158
7.82 0.290653
7.83 0.168353
7.84 0.0335429
7.85 -0.112311
7.86 -0.268141
7.87 -0.431387
7.88 -0.60004
7.89 -0.772058
7.9 -0.94532
7.91 -1.11765
7.92 -1.28683
7.93 -1.45065
7.94 -1.60693
7.95 -1.75355
7.96 -1.88769
7.97 -2.00771
7.98 -2.11222
7.99 -2.19975
8 -2.2691
8.01 -2.31937
8.02 -2.34995
8.03 -2.3606
8.04 -2.35145
8.05 -2.32301
8.06 -2.27546
8.07 -2.2103
8.08 -2.12998
8.09 -2.03658
8.1 -1.93242
8.11 -1.82012
8.12 -1.70244
8.13 -1.58227
8.14 -1.46253
8.15 -1.34611
8.16 -1.23599
8.17 -1.13521
8.18 -1.0456
8.19 -0.969017
8.2 -0.906848
8.21 -0.860034
8.22 -0.82901
8.23 -0.813694
8.24 -0.813488
8.25 -0.827296
8.26 -0.853658
8.27 -0.89104
8.28 -0.936161
8.29 -0.986352
8.3 -1.03876
8.31 -1.09043
8.32 -1.13839
8.33 -1.17971
8.34 -1.21161
8.35 -1.2315
8.36 -1.23706
8.37 -1.22485
8.38 -1.19421
8.39 -1.14392
8.4 -1.07299
8.41 -0.980735
8.42 -0.86676
8.43 -0.730929
8.44 -0.573326
8.45 -0.394214
8.46 -0.194005
8.47 0.027961
8.48 0.270234
8.49 0.531643
8.5 0.811399
8.51 1.10863
8.52 1.42235
8.53 1.75144
8.54 2.0946
8.55 2.4503
8.56 2.81675
8.57 3.19209
8.58 3.5735
8.59 3.95771
8.6 4.34138
8.61 4.72077
8.62 5.09173
8.63 5.44982
8.64 5.79028
8.65 6.10818
8.66 6.39849
8.67 6.65519
8.68 6.87194
8.69 7.04609
8.7 7.17365
8.71 7.25123
8.72 7.27616
8.73 7.24664
8.74 7.16177
8.75 7.02167
8.76 6.82747
8.77 6.58081
8.78 6.28234
8.79 5.94005
8.8 5.55907
8.81 5.14526
8.82 4.70501
8.83 4.24508
8.84 3.77247
8.85 3.29413
8.86 2.81689
8.87 2.34718
8.88 1.89238
8.89 1.45705
8.9 1.04539
8.91 0.660815
8.92 0.305753
8.93 -0.0183086
8.94 -0.310827
8.95 -0.572154
8.96 -0.803452
8.97 -1.0066
8.98 -1.18265
8.99 -1.33586
9 -1.46998
9.01 -1.58834
9.02 -1.69422
9.03 -1.79074
9.04 -1.8807
9.05 -1.9665
9.06 -2.05006
9.07 -2.13279
9.08 -2.21553
9.09 -2.29851
9.1 -2.38137
9.11 -2.46327
9.12 -2.54296
9.13 -2.61888
9.14 -2.68924
9.15 -2.75212
9.16 -2.80558
9.17 -2.84775
9.18 -2.8765
9.19 -2.88989
9.2 -2.88754
9.21 -2.86872
9.22 -2.83311
9.23 -2.78079
9.24 -2.71224
9.25 -2.62834
9.26 -2.53032
9.27 -2.4197
9.28 -2.29817
9.29 -2.16743
9.3 -2.03037
9.31 -1.88922
9.32 -1.74623
9.33 -1.60359
9.34 -1.46342
9.35 -1.32772
9.36 -1.19829
9.37 -1.0768
9.38 -0.96467
9.39 -0.86405
9.4 -0.775182
9.41 -0.698775
9.42 -0.635354
9.43 -0.585235
9.44 -0.548533
9.45 -0.525168
9.46 -0.514875
9.47 -0.517209
9.48 -0.531556
9.49 -0.55778
9.5 -0.594351
9.51 -0.639939
9.52 -0.693287
9.53 -0.753014
9.54 -0.817623
9.55 -0.885524
9.56 -0.955047
9.57 -1.02447
9.58 -1.09205
9.59 -1.1558
9.6 -1.21388
9.61 -1.26481
9.62 -1.3071
9.63 -1.33942
9.64 -1.3606
9.65 -1.3697
9.66 -1.36602
9.67 -1.34912
9.68 -1.31881
9.69 -1.2748
9.7 -1.2173
9.71 -1.14768
9.72 -1.06691
9.73 -0.976189
9.74 -0.876908
9.75 -0.770631
9.76 -0.65905
9.77 -0.543951
9.78 -0.427168
9.79 -0.310579
9.8 -0.196265
9.81 -0.0859224
9.82 0.018834
9.83 0.116535
9.84 0.205881
9.85 0.285766
9.86 0.355298
9.87 0.41381
9.88 0.460873
9.89 0.496301
9.9 0.51925
9.91 0.531
9.92 0.53217
9.93 0.523597
9.94 0.506344
9.95 0.481683
9.96 0.451084
9.97 0.416192
9.98 0.378807
9.99 0.340854
10 0.304586
10.01 0.272205
10.02 0.245784
10.03 0.227395
10.04 0.219033
10.05 0.222563
10.06 0.239676
10.07 0.271831
10.08 0.320212
10.09 0.385677
10.1 0.469568
10.11 0.571667
10.12 0.690935
10.13 0.826468
10.14 0.9769
10.15 1.14041
10.16 1.31472
10.17 1.49717
10.18 1.68472
10.19 1.87402
10.2 2.0613
10.21 2.24231
10.22 2.41333
10.23 2.57056
10.24 2.71034
10.25 2.82923
10.26 2.92408
10.27 2.99215
10.28 3.03116
10.29 3.03938
10.3 3.0151
10.31 2.95616
10.32 2.86489
10.33 2.74213
10.34 2.58934
10.35 2.40855
10.36 2.20233
10.37 1.97371
10.38 1.72608
10.39 1.46319
10.4 1.18896
10.41 0.907183
10.42 0.622827
10.43 0.339873
10.44 0.0621318
10.45 -0.206845
10.46 -0.46383
10.47 -0.705986
10.48 -0.930905
10.49 -1.13665
10.5 -1.32177
10.51 -1.48386
10.52 -1.62356
10.53 -1.74131
10.54 -1.83763
10.55 -1.91345
10.56 -1.96999
10.57 -2.00877
10.58 -2.03153
10.59 -2.04013
10.6 -2.03651
10.61 -2.02221
10.62 -1.99948
10.63 -1.97041
10.64 -1.93654
10.65 -1.89921
10.66 -1.85948
10.67 -1.81815
10.68 -1.77568
10.69 -1.73224
10.7 -1.68769
10.71 -1.64151
10.72 -1.59288
10.73 -1.54092
10.74 -1.48451
10.75 -1.42241
10.76 -1.35333
10.77 -1.27598
10.78 -1.18916
10.79 -1.09181
10.8 -0.983061
10.81 -0.862103
10.82 -0.728086
10.83 -0.581938
10.84 -0.424209
10.85 -0.255863
10.86 -0.0782839
10.87 0.106734
10.88 0.297009
10.89 0.490006
10.9 0.682887
10.91 0.872561
10.92 1.05499
10.93 1.2271
10.94 1.38557
10.95 1.52713
10.96 1.64874
10.97 1.74759
10.98 1.82123
10.99 1.86764
11 1.88523
11.01 1.87297
11.02 1.82828
11.03 1.75292
11.04 1.64806
11.05 1.51496
11.06 1.35538
11.07 1.17155
11.08 0.966094
11.09 0.741958
11.1 0.502355
11.11 0.250675
11.12 -0.00984411
11.13 -0.275155
11.14 -0.541563
11.15 -0.805759
11.16 -1.06463
11.17 -1.31529
11.18 -1.55514
11.19 -1.7819
11.2 -1.99359
11.21 -2.18855
11.22 -2.36481
11.23 -2.52107
11.24 -2.65752
11.25 -2.77377
11.26 -2.86969
11.27 -2.94533
11.28 -3.00091
11.29 -3.03684
11.3 -3.0536
11.31 -3.0518
11.32 -3.03177
11.33 -2.99355
11.34 -2.93903
11.35 -2.869
11.36 -2.78423
11.37 -2.68554
11.38 -2.57372
11.39 -2.44954
11.4 -2.31378
11.41 -2.16717
11.42 -2.01041
11.43 -1.84352
11.44 -1.66791
11.45 -1.48417
11.46 -1.29285
11.47 -1.09442
11.48 -0.889328
11.49 -0.677975
11.5 -0.460726
11.51 -0.237933
11.52 -0.00994751
11.53 0.223157
11.54 0.460634
11.55 0.701887
11.56 0.946262
11.57 1.19295
11.58 1.44097
11.59 1.68911
11.6 1.93595
11.61 2.17983
11.62 2.41884
11.63 2.65032
11.64 2.87183
11.65 3.08098
11.66 3.27507
11.67 3.4513
11.68 3.60685
11.69 3.73901
11.7 3.84515
11.71 3.92292
11.72 3.97023
11.73 3.98416
11.74 3.96311
11.75 3.90793
11.76 3.81856
11.77 3.69552
11.78 3.53996
11.79 3.35359
11.8 3.13868
11.81 2.89803
11.82 2.63486
11.83 2.35247
11.84 2.05453
11.85 1.74624
11.86 1.43172
11.87 1.11505
11.88 0.800149
11.89 0.490679
11.9 0.189997
11.91 -0.0989357
11.92 -0.373585
11.93 -0.631789
11.94 -0.870552
11.95 -1.0901
11.96 -1.2898
11.97 -1.46938
11.98 -1.62889
11.99 -1.76861
12 -1.88898
12.01 -1.99054
12.02 -2.07385
12.03 -2.13941
12.04 -2.18642
12.05 -2.21618
12.06 -2.22894
12.07 -2.22458
12.08 -2.20282
12.09 -2.16326
12.1 -2.10541
12.11 -2.02877
12.12 -1.93286
12.13 -1.81734
12.14 -1.68099
12.15 -1.52453
12.16 -1.34903
12.17 -1.15546
12.18 -0.945186
12.19 -0.720087
12.2 -0.482488
12.21 -0.235164
12.22 0.0186974
12.23 0.275559
12.24 0.531418
12.25 0.781802
12.26 1.02269
12.27 1.25009
12.28 1.46014
12.29 1.64931
12.3 1.81442
12.31 1.95279
12.32 2.0623
12.33 2.14144
12.34 2.18862
12.35 2.20255
12.36 2.1857
12.37 2.13928
12.38 2.0651
12.39 1.96543
12.4 1.84295
12.41 1.70068
12.42 1.54181
12.43 1.36965
12.44 1.18745
12.45 0.998209
12.46 0.805599
12.47 0.612301
12.48 0.420665
12.49 0.232674
12.5 0.0499267
12.51 -0.126355
12.52 -0.29531
12.53 -0.456404
12.54 -0.609374
12.55 -0.753589
12.56 -0.889686
12.57 -1.01792
12.58 -1.13847
12.59 -1.25142
12.6 -1.35672
12.61 -1.45416
12.62 -1.5433
12.63 -1.62346
12.64 -1.69373
12.65 -1.75227
12.66 -1.79793
12.67 -1.82949
12.68 -1.84533
12.69 -1.84382
12.7 -1.8234
12.71 -1.78263
12.72 -1.72025
12.73 -1.63534
12.74 -1.52728
12.75 -1.39496
12.76 -1.23871
12.77 -1.06039
12.78 -0.861381
12.79 -0.643611
12.8 -0.409494
12.81 -0.161914
12.82 0.0958235
12.83 0.36006
12.84 0.626856
12.85 0.891927
12.86 1.15042
12.87 1.39822
12.88 1.63122
12.89 1.84553
12.9 2.03757
12.91 2.20415
12.92 2.34255
12.93 2.45057
12.94 2.52659
12.95 2.56935
12.96 2.5763
12.97 2.55026
12.98 2.49222
12.99 2.40374
13 2.28688
13.01 2.1442
13.02 1.97859
13.03 1.79328
13.04 1.59171
13.05 1.37745
13.06 1.15372
13.07 0.924931
13.08 0.694575
13.09 0.465849
13.1 0.241684
13.11 0.0246974
13.12 -0.182843
13.13 -0.379035
13.14 -0.562352
13.15 -0.731632
13.16 -0.88517
13.17 -1.02296
13.18 -1.1452
13.19 -1.25192
13.2 -1.34335
13.21 -1.41981
13.22 -1.48171
13.23 -1.52944
13.24 -1.56343
13.25 -1.58401
13.26 -1.59093
13.27 -1.58444
13.28 -1.56517
13.29 -1.53321
13.3 -1.48858
13.31 -1.43134
13.32 -1.3616
13.33 -1.27957
13.34 -1.18559
13.35 -1.08022
13.36 -0.964019
13.37 -0.837888
13.38 -0.703851
13.39 -0.56365
13.4 -0.419331
13.41 -0.273229
13.42 -0.127922
13.43 0.0138127
13.44 0.149069
13.45 0.274888
13.46 0.388192
13.47 0.485006
13.48 0.563731
13.49 0.622186
13.5 0.658606
13.51 0.671724
13.52 0.660826
13.53 0.625793
13.54 0.56713
13.55 0.485963
