# xPDFsuite Configuration #
[PDF]
wavelength = 0.1
dataformat = Qnm
inputfile = tio2-ito-glass-450.chi
backgroundfile = ito-glass-conv.chi
mode = xray
bgscale = 1.01039749375
composition = TiO2
outputtype = fq
qmaxinst = 20.0
qmin = 0.7
qmax = 16.0
rmax = 100.0
rmin = 0.0
rstep = 0.01
rpoly = 1.0

#### start data
#S 1
#L Q($\AA^{-1}$)  F($\AA^{-1}$)
0.703091 0.0660767
0.724725 0.0342897
0.746358 0.00565959
0.767992 -0.0312059
0.789625 -0.0813405
0.811259 -0.113612
0.832892 -0.154317
0.854526 -0.186449
0.87616 -0.219865
0.897793 -0.260105
0.919427 -0.294179
0.94106 -0.324479
0.962694 -0.363996
0.984327 -0.392004
1.00596 -0.412077
1.02759 -0.447448
1.04923 -0.463676
1.07086 -0.50026
1.0925 -0.545075
1.11413 -0.575382
1.13576 -0.621806
1.1574 -0.655324
1.17903 -0.675593
1.20066 -0.714346
1.2223 -0.753339
1.24393 -0.792814
1.26556 -0.842875
1.2872 -0.875641
1.30883 -0.908429
1.33046 -0.952743
1.3521 -0.989785
1.37373 -1.0254
1.39537 -1.06205
1.417 -1.09167
1.43863 -1.13693
1.46027 -1.1598
1.4819 -1.17898
1.50353 -1.19286
1.52517 -1.17981
1.5468 -1.15838
1.56843 -1.13543
1.59007 -1.0923
1.6117 -1.02085
1.63333 -0.93177
1.65497 -0.753049
1.6766 -0.421809
1.69824 0.27193
1.71987 1.63208
1.7415 3.84219
1.76314 6.24483
1.78477 7.41929
1.8064 6.57551
1.82804 4.38793
1.84967 2.15907
1.8713 0.723933
1.89294 -0.00900494
1.91457 -0.373316
1.9362 -0.577174
1.95784 -0.710518
1.97947 -0.814799
2.00111 -0.83736
2.02274 -0.813225
2.04437 -0.787698
2.06601 -0.736733
2.08764 -0.703897
2.10927 -0.648592
2.13091 -0.585546
2.15254 -0.55582
2.17417 -0.615341
2.19581 -0.749737
2.21744 -0.861817
2.23907 -0.911286
2.26071 -0.930539
2.28234 -0.970468
2.30398 -0.98999
2.32561 -1.00563
2.34724 -1.01258
2.36888 -1.01434
2.39051 -1.0487
2.41214 -1.06176
2.43378 -1.06452
2.45541 -1.00351
2.47704 -0.892261
2.49868 -0.762209
2.52031 -0.584438
2.54194 -0.281448
2.56358 0.238122
2.58521 1.01363
2.60685 1.93944
2.62848 2.69776
2.65011 2.9164
2.67175 2.45394
2.69338 1.52318
2.71501 0.51586
2.73665 -0.284163
2.75828 -0.848689
2.77991 -1.191
2.80155 -1.40281
2.82318 -1.54303
2.84481 -1.61093
2.86645 -1.66707
2.88808 -1.70489
2.90972 -1.6936
2.93135 -1.71791
2.95298 -1.7443
2.97462 -1.76888
2.99625 -1.78369
3.01788 -1.78887
3.03952 -1.82229
3.06115 -1.8729
3.08278 -1.92157
3.10442 -1.98724
3.12605 -2.01185
3.14768 -1.91892
3.16932 -1.74727
3.19095 -1.4684
3.21259 -1.00057
3.23422 -0.123697
3.25585 1.53747
3.27749 3.86372
3.29912 6.01009
3.32075 6.64389
3.34239 5.28039
3.36402 2.87653
3.38565 0.739604
3.40729 -0.576647
3.42892 -1.25449
3.45055 -1.52314
3.47219 -1.57669
3.49382 -1.4797
3.51545 -1.41412
3.53709 -1.47765
3.55872 -1.6218
3.58036 -1.61181
3.60199 -1.21914
3.62362 -0.22527
3.64526 1.5647
3.66689 3.97447
3.68852 6.37292
3.71016 7.9206
3.73179 8.55265
3.75342 8.23948
3.77506 6.805
3.79669 4.45078
3.81832 1.9606
3.83996 0.0950942
3.86159 -1.03127
3.88323 -1.64347
3.90486 -2.04101
3.92649 -2.29396
3.94813 -2.48372
3.96976 -2.585
3.99139 -2.63544
4.01303 -2.66768
4.03466 -2.64923
4.05629 -2.605
4.07793 -2.49455
4.09956 -2.19335
4.12119 -1.63754
4.14283 -0.835252
4.16446 0.500178
4.1861 2.58202
4.20773 4.95959
4.22936 6.57272
4.251 6.4359
4.27263 4.6835
4.29426 2.28007
4.3159 0.319729
4.33753 -0.931038
4.35916 -1.65571
4.3808 -2.07461
4.40243 -2.3151
4.42406 -2.41275
4.4457 -2.48834
4.46733 -2.4576
4.48897 -2.30807
4.5106 -1.8948
4.53223 -1.15691
4.55387 -0.0389122
4.5755 1.24132
4.59713 2.34507
4.61877 3.02789
4.6404 3.35126
4.66203 3.51855
4.68367 3.31112
4.7053 2.36422
4.72693 0.848203
4.74857 -0.617158
4.7702 -1.64108
4.79184 -2.14722
4.81347 -2.27037
4.8351 -2.16276
4.85674 -1.71905
4.87837 -0.813112
4.9 0.787874
4.92164 3.09858
4.94327 5.65007
4.9649 7.25363
4.98654 7.00205
5.00817 5.26593
5.0298 2.86667
5.05144 0.58294
5.07307 -1.18998
5.09471 -2.46134
5.11634 -3.13215
5.13797 -3.44162
5.15961 -3.5171
5.18124 -3.45287
5.20287 -3.29869
5.22451 -3.03983
5.24614 -2.67173
5.26777 -2.20234
5.28941 -1.50332
5.31104 -0.32039
5.33267 1.50206
5.35431 3.702
5.37594 5.31702
5.39758 5.41989
5.41921 3.92819
5.44084 1.7548
5.46248 -0.240507
5.48411 -1.58717
5.50574 -2.23351
5.52738 -2.54336
5.54901 -2.71618
5.57064 -2.87974
5.59228 -3.03673
5.61391 -3.23706
5.63554 -3.37133
5.65718 -3.44098
5.67881 -3.49031
5.70045 -3.49298
5.72208 -3.48826
5.74371 -3.43946
5.76535 -3.3858
5.78698 -3.37387
5.80861 -3.32582
5.83025 -3.28137
5.85188 -3.10556
5.87351 -2.56588
5.89515 -1.69533
5.91678 -0.549221
5.93841 0.840907
5.96005 2.18849
5.98168 3.13095
6.00332 3.17601
6.02495 2.28251
6.04658 0.898604
6.06822 -0.435465
6.08985 -1.29166
6.11148 -1.51774
6.13312 -1.21066
6.15475 -0.749106
6.17638 -0.408484
6.19802 -0.183275
6.21965 -0.12225
6.24128 -0.300045
6.26292 -0.576729
6.28455 -0.962313
6.30619 -1.48413
6.32782 -2.07023
6.34945 -2.68089
6.37109 -3.05035
6.39272 -3.35781
6.41435 -3.33479
6.43599 -3.15509
6.45762 -2.82833
6.47925 -2.3029
6.50089 -1.50907
6.52252 -0.237087
6.54415 1.25181
6.56579 2.63763
6.58742 3.26051
6.60906 3.07847
6.63069 2.33982
6.65232 1.14497
6.67396 -0.13
6.69559 -0.999178
6.71722 -1.39877
6.73886 -1.26654
6.76049 -0.361689
6.78212 1.25617
6.80376 3.27163
6.82539 5.02243
6.84702 5.76208
6.86866 5.10825
6.89029 3.62895
6.91193 2.45248
6.93356 2.18502
6.95519 3.14324
6.97683 5.05302
6.99846 6.79182
7.02009 7.33211
7.04173 6.8219
7.06336 5.93903
7.08499 5.41555
7.10663 5.31012
7.12826 5.17552
7.14989 4.43292
7.17153 2.81909
7.19316 0.858928
7.2148 -0.827317
7.23643 -1.90613
7.25806 -2.37141
7.2797 -2.67681
7.30133 -2.74331
7.32296 -2.31912
7.3446 -1.56423
7.36623 -0.460664
7.38786 0.771739
7.4095 1.56336
7.43113 1.48968
7.45276 0.648267
7.4744 -0.417615
7.49603 -1.04546
7.51767 -1.10796
7.5393 -0.49112
7.56093 0.464376
7.58257 1.08422
7.6042 0.762858
7.62583 -0.29848
7.64747 -1.60474
7.6691 -2.63349
7.69073 -3.01187
7.71237 -2.98297
7.734 -2.7466
7.75563 -2.44452
7.77727 -2.13971
7.7989 -1.61078
7.82054 -0.607673
7.84217 0.597376
7.8638 1.37733
7.88544 0.994341
7.90707 -0.490638
7.9287 -1.87781
7.95034 -2.99752
7.97197 -3.58132
7.9936 -3.67657
8.01524 -3.64577
8.03687 -3.37353
8.0585 -2.84758
8.08014 -2.57116
8.10177 -2.48123
8.12341 -2.50006
8.14504 -2.5926
8.16667 -2.6334
8.18831 -2.63241
8.20994 -2.61163
8.23157 -2.21914
8.25321 -1.69638
8.27484 -1.03144
8.29647 -0.235357
8.31811 0.58175
8.33974 1.15505
8.36137 1.75126
8.38301 2.92942
8.40464 4.57
8.42628 6.02984
8.44791 6.37595
8.46954 5.4387
8.49118 3.87338
8.51281 2.38931
8.53444 1.10707
8.55608 0.155886
8.57771 -0.577595
8.59934 -1.52558
8.62098 -2.47514
8.64261 -3.08158
8.66424 -3.43681
8.68588 -3.55822
8.70751 -3.54502
8.72915 -3.45857
8.75078 -3.38043
8.77241 -3.30431
8.79405 -3.26348
8.81568 -3.22065
8.83731 -2.7064
8.85895 -1.75867
8.88058 -0.416788
8.90221 1.01596
8.92385 1.9707
8.94548 1.97766
8.96711 1.10469
8.98875 0.152332
9.01038 -0.468479
9.03202 -0.418595
9.05365 0.10293
9.07528 0.398596
9.09692 0.150575
9.11855 -0.501736
9.14018 -1.18032
9.16182 -1.80891
9.18345 -2.43727
9.20508 -2.65897
9.22672 -2.76047
9.24835 -2.42506
9.26998 -1.71004
9.29162 -0.770031
9.31325 0.453797
9.33489 1.59989
9.35652 1.82958
9.37815 1.59685
9.39979 1.18938
9.42142 0.649436
9.44305 0.349033
9.46469 0.61666
9.48632 1.44917
9.50795 2.24806
9.52959 2.48812
9.55122 2.08069
9.57285 1.19598
9.59449 0.703871
9.61612 0.460475
9.63776 0.335616
9.65939 0.237297
9.68102 0.0686957
9.70266 0.0495262
9.72429 0.177337
9.74592 -0.0385924
9.76756 -0.646827
9.78919 -1.2841
9.81082 -2.07714
9.83246 -2.53402
9.85409 -2.62435
9.87572 -2.45479
9.89736 -2.11248
9.91899 -1.81085
9.94062 -1.27646
9.96226 -0.793947
9.98389 -0.800217
10.0055 -0.882664
10.0272 -0.731805
10.0488 -0.417649
10.0704 -0.0848739
10.0921 0.243531
10.1137 0.122848
10.1353 -0.0920052
10.157 -0.146232
10.1786 0.0846715
10.2002 0.432318
10.2219 0.358231
10.2435 0.165945
10.2651 0.0678636
10.2868 -0.0192948
10.3084 -0.18867
10.33 -0.486659
10.3517 -0.863121
10.3733 -0.819473
10.3949 -0.38225
10.4166 0.259469
10.4382 1.24691
10.4598 2.09762
10.4815 2.48638
10.5031 2.24581
10.5247 2.3318
10.5464 2.9978
10.568 3.89603
10.5896 5.0897
10.6113 6.03609
10.6329 6.39911
10.6545 5.92808
10.6762 5.64265
10.6978 5.74151
10.7194 6.02997
10.7411 5.69108
10.7627 5.0947
10.7843 4.32448
10.806 3.57938
10.8276 2.77695
10.8492 1.38665
10.8709 0.0484421
10.8925 -0.907124
10.9141 -1.3282
10.9358 -1.2812
10.9574 -1.09177
10.979 -1.17718
11.0007 -0.863245
11.0223 -0.354664
11.0439 -0.0430087
11.0656 0.228321
11.0872 0.633171
11.1088 0.894745
11.1305 0.885853
11.1521 0.14332
11.1737 -0.832273
11.1954 -1.52974
11.217 -1.82809
11.2386 -2.23837
11.2603 -2.51754
11.2819 -2.66012
11.3035 -3.13625
11.3252 -3.11922
11.3468 -3.30269
11.3684 -3.44246
11.3901 -3.59744
11.4117 -3.57272
11.4333 -3.4123
11.455 -2.92908
11.4766 -2.50675
11.4982 -1.79333
11.5199 -0.839784
11.5415 0.0219804
11.5631 0.779433
11.5848 1.37395
11.6064 1.75958
11.628 1.78643
11.6497 1.71525
11.6713 1.63746
11.6929 1.9374
11.7146 2.2292
11.7362 1.73621
11.7578 1.09458
11.7795 0.0256075
11.8011 -0.834085
11.8227 -1.55247
11.8444 -2.18641
11.866 -2.59223
11.8876 -2.48485
11.9093 -2.23655
11.9309 -1.79159
11.9525 -1.53496
11.9742 -1.48825
11.9958 -1.38872
12.0174 -1.21652
12.0391 -1.08656
12.0607 -0.91617
12.0823 -0.849548
12.104 -0.795017
12.1256 -1.0615
12.1472 -1.04247
12.1689 -0.919061
12.1905 -0.801493
12.2121 -0.65916
12.2338 -0.495805
12.2554 -0.702875
12.2771 -1.22013
12.2987 -1.50159
12.3203 -1.2229
12.342 -0.711802
12.3636 -0.499041
12.3852 -0.416824
12.4069 -0.205901
12.4285 -0.124702
12.4501 -0.061511
12.4718 0.463311
12.4934 0.892235
12.515 0.805004
12.5367 1.02634
12.5583 0.880501
12.5799 0.461628
12.6016 -0.0563925
12.6232 -0.576094
12.6448 -0.679264
12.6665 -0.701618
12.6881 -0.826975
12.7097 -0.968017
12.7314 -1.27128
12.753 -1.24066
12.7746 -1.47374
12.7963 -1.39006
12.8179 -0.903173
12.8395 -0.400036
12.8612 -0.14736
12.8828 0.203041
12.9044 0.787946
12.9261 1.12111
12.9477 1.22601
12.9693 1.3885
12.991 1.35305
13.0126 1.3371
13.0342 1.39402
13.0559 1.74597
13.0775 1.63753
13.0991 1.04621
13.1208 0.502225
13.1424 0.212597
13.164 0.0157705
13.1857 0.247364
13.2073 0.406073
13.2289 0.595573
13.2506 1.10625
13.2722 1.56685
13.2938 1.80104
13.3155 2.25921
13.3371 3.15696
13.3587 3.72918
13.3804 4.25857
13.402 4.40941
13.4236 4.34438
13.4453 4.05368
13.4669 3.91696
13.4885 3.4367
13.5102 2.76853
13.5318 1.84163
13.5534 1.18747
13.5751 0.677117
13.5967 0.276273
13.6183 -0.00365026
13.64 0.0296032
13.6616 0.404689
13.6832 0.470903
13.7049 0.576028
13.7265 0.846961
13.7481 0.53254
13.7698 0.345008
13.7914 0.085329
13.813 -0.209941
13.8347 -0.467802
13.8563 -0.482626
13.8779 -0.493133
13.8996 -0.42624
13.9212 -0.467496
13.9428 -0.439702
13.9645 -0.512016
13.9861 -0.624507
14.0077 -0.95231
14.0294 -1.1485
14.051 -1.15895
14.0726 -0.892685
14.0943 -0.313486
14.1159 -0.187439
14.1375 -0.1482
14.1592 -0.317175
14.1808 -0.200844
14.2024 0.188544
14.2241 0.768534
14.2457 0.995244
14.2673 0.513496
14.289 0.348324
14.3106 0.525172
14.3322 0.327211
14.3539 -0.431398
14.3755 -1.34062
14.3971 -1.70693
14.4188 -2.08216
14.4404 -2.25439
14.462 -1.84786
14.4837 -1.45322
14.5053 -1.20913
14.5269 -0.989874
14.5486 -0.898128
14.5702 -0.961904
14.5918 -0.429754
14.6135 -0.444019
14.6351 -0.704043
14.6567 -0.741446
14.6784 -0.857186
14.7 -1.15483
14.7216 -1.0402
14.7433 -1.2556
14.7649 -1.00395
14.7865 -0.316367
14.8082 0.418778
14.8298 0.635771
14.8514 0.409507
14.8731 0.388933
14.8947 0.654902
14.9163 1.10576
14.938 1.17953
14.9596 1.23281
14.9812 0.974988
15.0029 0.167758
15.0245 0.164311
15.0461 0.280075
15.0678 -0.0679368
15.0894 -0.418533
15.111 -0.404204
15.1327 -0.73157
15.1543 -0.367081
15.1759 -0.889327
15.1976 -0.701489
15.2192 -0.288306
15.2408 -0.495761
15.2625 -0.649619
15.2841 -0.595462
15.3058 -0.282858
15.3274 -0.0437682
15.349 0.00168351
15.3707 0.0504254
15.3923 -0.313299
15.4139 -0.77556
15.4356 -0.968036
15.4572 -1.07491
15.4788 -1.05911
15.5005 -0.918705
15.5221 -0.340636
15.5437 -0.541631
15.5654 -0.386251
15.587 0.191089
15.6086 0.469178
15.6303 0.549577
15.6519 0.491969
15.6735 0.701218
15.6952 0.847189
15.7168 0.234764
15.7384 -0.569126
15.7601 -0.548465
15.7817 -0.455057
15.8033 -0.803659
15.825 -1.49593
15.8466 -1.49953
15.8682 -1.71252
15.8899 -1.66837
15.9115 -1.9118
15.9331 -1.84429
15.9548 -1.57819
15.9764 -1.61363
15.998 -1.77206
