# xPDFsuite Configuration #
[PDF]
wavelength = 0.1
dataformat = Qnm
inputfile = tio2-ito-glass-250.chi
backgroundfile = ito-glass-conv.chi
mode = xray
bgscale = 1.010394815
composition = TiO2
outputtype = fq
qmaxinst = 20.0
qmin = 0.7
qmax = 16.0
rmax = 100.0
rmin = 0.0
rstep = 0.01
rpoly = 1.0

#### start data
#S 1
#L Q($\AA^{-1}$)  F($\AA^{-1}$)
0.703091 0.0337701
0.724725 0.0263461
0.746358 0.0123695
0.767992 -0.00114515
0.789625 -0.013747
0.811259 -0.0265714
0.832892 -0.0381053
0.854526 -0.0485142
0.87616 -0.0595452
0.897793 -0.067208
0.919427 -0.0736878
0.94106 -0.0818029
0.962694 -0.0901581
0.984327 -0.0993836
1.00596 -0.107574
1.02759 -0.114995
1.04923 -0.123284
1.07086 -0.134727
1.0925 -0.14615
1.11413 -0.156764
1.13576 -0.162257
1.1574 -0.166017
1.17903 -0.16939
1.20066 -0.173928
1.2223 -0.189067
1.24393 -0.195104
1.26556 -0.200776
1.2872 -0.202958
1.30883 -0.204103
1.33046 -0.203705
1.3521 -0.195949
1.37373 -0.192492
1.39537 -0.187948
1.417 -0.182509
1.43863 -0.176239
1.46027 -0.169541
1.4819 -0.157201
1.50353 -0.147029
1.52517 -0.123357
1.5468 -0.0889986
1.56843 -0.0506675
1.59007 -0.0161127
1.6117 0.0164543
1.63333 0.0570923
1.65497 0.0974703
1.6766 0.127608
1.69824 0.153861
1.71987 0.176241
1.7415 0.191604
1.76314 0.20227
1.78477 0.21175
1.8064 0.208282
1.82804 0.223561
1.84967 0.267574
1.8713 0.318222
1.89294 0.353608
1.91457 0.36056
1.9362 0.346923
1.95784 0.328755
1.97947 0.321731
2.00111 0.339238
2.02274 0.368421
2.04437 0.398007
2.06601 0.42421
2.08764 0.449335
2.10927 0.475954
2.13091 0.497673
2.15254 0.499137
2.17417 0.473102
2.19581 0.420529
2.21744 0.357944
2.23907 0.309992
2.26071 0.28759
2.28234 0.264172
2.30398 0.225459
2.32561 0.188982
2.34724 0.148866
2.36888 0.104348
2.39051 0.0482225
2.41214 -0.0201648
2.43378 -0.072839
2.45541 -0.114534
2.47704 -0.153815
2.49868 -0.203422
2.52031 -0.273434
2.54194 -0.360307
2.56358 -0.446279
2.58521 -0.497224
2.60685 -0.532431
2.62848 -0.572629
2.65011 -0.613258
2.67175 -0.652549
2.69338 -0.690828
2.71501 -0.708324
2.73665 -0.714649
2.75828 -0.735173
2.77991 -0.745303
2.80155 -0.744281
2.82318 -0.74098
2.84481 -0.726817
2.86645 -0.708902
2.88808 -0.678489
2.90972 -0.638189
2.93135 -0.592969
2.95298 -0.552419
2.97462 -0.511976
2.99625 -0.479191
3.01788 -0.447762
3.03952 -0.423716
3.06115 -0.410699
3.08278 -0.428308
3.10442 -0.454164
3.12605 -0.439445
3.14768 -0.397034
3.16932 -0.350071
3.19095 -0.280519
3.21259 -0.211062
3.23422 -0.173724
3.25585 -0.153483
3.27749 -0.127427
3.29912 -0.0985361
3.32075 -0.0762294
3.34239 -0.0882072
3.36402 -0.112901
3.38565 -0.100734
3.40729 -0.0751898
3.42892 -0.0492838
3.45055 -0.00243217
3.47219 0.0688946
3.49382 0.157868
3.51545 0.181493
3.53709 0.148802
3.55872 0.0761446
3.58036 -0.0211398
3.60199 -0.0915988
3.62362 -0.12115
3.64526 -0.0972045
3.66689 -0.050969
3.68852 0.0245617
3.71016 0.0870155
3.73179 0.0881665
3.75342 0.0527654
3.77506 0.0694892
3.79669 0.110652
3.81832 0.173927
3.83996 0.269388
3.86159 0.360999
3.88323 0.433966
3.90486 0.488786
3.92649 0.553629
3.94813 0.595572
3.96976 0.632418
3.99139 0.695745
4.01303 0.751177
4.03466 0.792909
4.05629 0.838199
4.07793 0.870502
4.09956 0.933764
4.12119 1.02332
4.14283 1.0802
4.16446 1.0762
4.1861 1.06548
4.20773 1.05323
4.22936 1.04525
4.251 1.03533
4.27263 1.0203
4.29426 0.989096
4.3159 0.966591
4.33753 0.966413
4.35916 0.956133
4.3808 0.897355
4.40243 0.868301
4.42406 0.860248
4.4457 0.830286
4.46733 0.78408
4.48897 0.739862
4.5106 0.741533
4.53223 0.749983
4.55387 0.713557
4.5755 0.640523
4.59713 0.547606
4.61877 0.459973
4.6404 0.336724
4.66203 0.185891
4.68367 0.0639472
4.7053 -0.0347328
4.72693 -0.0992895
4.74857 -0.120319
4.7702 -0.112963
4.79184 -0.131586
4.81347 -0.16187
4.8351 -0.172542
4.85674 -0.181475
4.87837 -0.198367
4.9 -0.224065
4.92164 -0.284172
4.94327 -0.326658
4.9649 -0.311848
4.98654 -0.349251
5.00817 -0.468152
5.0298 -0.562976
5.05144 -0.660889
5.07307 -0.759028
5.09471 -0.843565
5.11634 -0.897107
5.13797 -0.933347
5.15961 -0.876231
5.18124 -0.776595
5.20287 -0.648304
5.22451 -0.527714
5.24614 -0.466993
5.26777 -0.409095
5.28941 -0.35846
5.31104 -0.327485
5.33267 -0.313508
5.35431 -0.277892
5.37594 -0.241135
5.39758 -0.22782
5.41921 -0.26804
5.44084 -0.266785
5.46248 -0.277176
5.48411 -0.302803
5.50574 -0.284004
5.52738 -0.273819
5.54901 -0.272883
5.57064 -0.263531
5.59228 -0.236008
5.61391 -0.236289
5.63554 -0.280967
5.65718 -0.343572
5.67881 -0.374471
5.70045 -0.391535
5.72208 -0.418143
5.74371 -0.394477
5.76535 -0.390908
5.78698 -0.413299
5.80861 -0.466978
5.83025 -0.46395
5.85188 -0.419357
5.87351 -0.386258
5.89515 -0.433167
5.91678 -0.468164
5.93841 -0.459352
5.96005 -0.524428
5.98168 -0.601599
6.00332 -0.654923
6.02495 -0.634529
6.04658 -0.589997
6.06822 -0.517189
6.08985 -0.443559
6.11148 -0.376056
6.13312 -0.31475
6.15475 -0.279137
6.17638 -0.263762
6.19802 -0.267721
6.21965 -0.263084
6.24128 -0.275432
6.26292 -0.32731
6.28455 -0.362587
6.30619 -0.307783
6.32782 -0.207117
6.34945 -0.1652
6.37109 -0.139115
6.39272 -0.0866544
6.41435 -0.0444107
6.43599 -0.0104515
6.45762 0.060175
6.47925 0.0960692
6.50089 0.0686044
6.52252 0.101656
6.54415 0.190058
6.56579 0.194589
6.58742 0.241512
6.60906 0.289318
6.63069 0.328027
6.65232 0.38192
6.67396 0.398802
6.69559 0.428438
6.71722 0.47879
6.73886 0.512877
6.76049 0.506025
6.78212 0.520907
6.80376 0.620518
6.82539 0.659769
6.84702 0.68571
6.86866 0.65936
6.89029 0.680719
6.91193 0.73791
6.93356 0.772096
6.95519 0.782465
6.97683 0.870484
6.99846 0.9944
7.02009 0.979658
7.04173 0.98078
7.06336 1.02772
7.08499 1.01802
7.10663 1.00309
7.12826 1.10339
7.14989 1.09114
7.17153 1.06998
7.19316 1.0956
7.2148 1.05999
7.23643 1.0142
7.25806 0.950818
7.2797 0.808151
7.30133 0.745074
7.32296 0.719982
7.3446 0.699459
7.36623 0.697989
7.38786 0.5762
7.4095 0.463874
7.43113 0.433627
7.45276 0.472264
7.4744 0.422014
7.49603 0.263955
7.51767 0.163984
7.5393 0.130364
7.56093 0.034219
7.58257 -0.0384662
7.6042 -0.115195
7.62583 -0.23197
7.64747 -0.369175
7.6691 -0.558522
7.69073 -0.650613
7.71237 -0.676968
7.734 -0.719134
7.75563 -0.802685
7.77727 -0.806854
7.7989 -0.798014
7.82054 -0.755356
7.84217 -0.799327
7.8638 -0.844897
7.88544 -0.916617
7.90707 -1.06162
7.9287 -1.01741
7.95034 -0.883455
7.97197 -0.742055
7.9936 -0.719578
8.01524 -0.762872
8.03687 -0.782584
8.0585 -0.733141
8.08014 -0.669322
8.10177 -0.57642
8.12341 -0.544891
8.14504 -0.535274
8.16667 -0.525172
8.18831 -0.498726
8.20994 -0.463735
8.23157 -0.381895
8.25321 -0.415469
8.27484 -0.401804
8.29647 -0.334301
8.31811 -0.321508
8.33974 -0.265579
8.36137 -0.240411
8.38301 -0.344191
8.40464 -0.422126
8.42628 -0.444295
8.44791 -0.489482
8.46954 -0.411836
8.49118 -0.397229
8.51281 -0.433129
8.53444 -0.477071
8.55608 -0.492243
8.57771 -0.437793
8.59934 -0.300185
8.62098 -0.26743
8.64261 -0.300252
8.66424 -0.360202
8.68588 -0.350153
8.70751 -0.433983
8.72915 -0.43694
8.75078 -0.421702
8.77241 -0.388554
8.79405 -0.399006
8.81568 -0.480267
8.83731 -0.452965
8.85895 -0.328307
8.88058 -0.328483
8.90221 -0.38051
8.92385 -0.328373
8.94548 -0.30356
8.96711 -0.278933
8.98875 -0.144616
9.01038 -0.164866
9.03202 -0.105093
9.05365 -0.086709
9.07528 -0.0589224
9.09692 -0.0827717
9.11855 -0.151405
9.14018 -0.0479467
9.16182 0.0421534
9.18345 0.0284601
9.20508 -0.0317697
9.22672 -0.046622
9.24835 0.126298
9.26998 0.249167
9.29162 0.10371
9.31325 0.139235
9.33489 0.263884
9.35652 0.111556
9.37815 0.0811975
9.39979 0.12907
9.42142 0.154327
9.44305 0.172198
9.46469 0.255778
9.48632 0.257887
9.50795 0.286203
9.52959 0.384707
9.55122 0.381182
9.57285 0.388955
9.59449 0.494951
9.61612 0.454834
9.63776 0.439568
9.65939 0.362914
9.68102 0.269482
9.70266 0.338372
9.72429 0.428786
9.74592 0.356087
9.76756 0.289447
9.78919 0.303547
9.81082 0.353793
9.83246 0.427785
9.85409 0.321045
9.87572 0.316233
9.89736 0.341643
9.91899 0.258357
9.94062 0.261667
9.96226 0.305671
9.98389 0.199026
10.0055 0.144121
10.0272 0.198314
10.0488 0.1953
10.0704 0.213905
10.0921 0.381677
10.1137 0.425117
10.1353 0.246038
10.157 0.295003
10.1786 0.312446
10.2002 0.267519
10.2219 0.223243
10.2435 0.21795
10.2651 0.251516
10.2868 0.212093
10.3084 0.345658
10.33 0.411337
10.3517 0.20914
10.3733 0.159614
10.3949 0.330831
10.4166 0.44349
10.4382 0.376114
10.4598 0.428683
10.4815 0.503011
10.5031 0.478142
10.5247 0.495912
10.5464 0.39344
10.568 0.239331
10.5896 0.242095
10.6113 0.293519
10.6329 0.305923
10.6545 0.316754
10.6762 0.371033
10.6978 0.452054
10.7194 0.35533
10.7411 0.197251
10.7627 0.271984
10.7843 0.394075
10.806 0.287518
10.8276 0.407199
10.8492 0.303091
10.8709 0.262416
10.8925 0.33775
10.9141 0.402161
10.9358 0.381431
10.9574 0.386813
10.979 0.370231
11.0007 0.393697
11.0223 0.330386
11.0439 0.367647
11.0656 0.185613
11.0872 0.250931
11.1088 0.425094
11.1305 0.422017
11.1521 0.270252
11.1737 0.278006
11.1954 0.26079
11.217 0.339965
11.2386 0.268212
11.2603 0.193715
11.2819 0.114999
11.3035 -0.232965
11.3252 -0.380382
11.3468 -0.429977
11.3684 -0.252545
11.3901 -0.186305
11.4117 -0.284703
11.4333 -0.40461
11.455 -0.40547
11.4766 -0.406857
11.4982 -0.377132
11.5199 -0.384117
11.5415 -0.476904
11.5631 -0.633565
11.5848 -0.68256
11.6064 -0.617697
11.628 -0.61277
11.6497 -0.742795
11.6713 -0.626401
11.6929 -0.612572
11.7146 -0.627758
11.7362 -0.715386
11.7578 -0.457014
11.7795 -0.525564
11.8011 -0.715288
11.8227 -0.815031
11.8444 -0.874507
11.866 -1.10022
11.8876 -1.23735
11.9093 -1.18608
11.9309 -1.09494
11.9525 -1.05526
11.9742 -1.15862
11.9958 -1.12099
12.0174 -1.17876
12.0391 -1.11544
12.0607 -1.04941
12.0823 -0.983225
12.104 -0.885862
12.1256 -0.947689
12.1472 -0.955655
12.1689 -0.844574
12.1905 -0.814816
12.2121 -0.675488
12.2338 -0.660371
12.2554 -0.61423
12.2771 -0.647764
12.2987 -0.733748
12.3203 -0.531458
12.342 -0.278256
12.3636 -0.268557
12.3852 -0.228921
12.4069 -0.202368
12.4285 -0.259162
12.4501 -0.265312
12.4718 -0.0868371
12.4934 -0.0165513
12.515 -0.165822
12.5367 0.0317294
12.5583 0.230472
12.5799 0.296301
12.6016 0.113918
12.6232 0.0107682
12.6448 0.284781
12.6665 0.480026
12.6881 0.468303
12.7097 0.506717
12.7314 0.547073
12.753 0.442855
12.7746 0.450477
12.7963 0.64367
12.8179 0.798204
12.8395 0.928608
12.8612 0.904276
12.8828 0.737725
12.9044 0.818966
12.9261 0.852556
12.9477 0.901815
12.9693 0.989841
12.991 1.13614
13.0126 1.09213
13.0342 0.927798
13.0559 1.07097
13.0775 0.952255
13.0991 0.79793
13.1208 0.86488
13.1424 0.673114
13.164 0.431833
13.1857 0.52876
13.2073 0.527769
13.2289 0.561543
13.2506 0.614455
13.2722 0.650043
13.2938 0.473389
13.3155 0.348628
13.3371 0.509049
13.3587 0.396198
13.3804 0.518259
13.402 0.654398
13.4236 0.515769
13.4453 0.408234
13.4669 0.331292
13.4885 0.347141
13.5102 0.517104
13.5318 0.49394
13.5534 0.375809
13.5751 0.248378
13.5967 0.233847
13.6183 0.146724
13.64 -0.0229055
13.6616 0.116299
13.6832 0.287882
13.7049 0.16338
13.7265 0.454009
13.7481 0.376507
13.7698 0.221172
13.7914 0.180005
13.813 0.169318
13.8347 0.368891
13.8563 0.324938
13.8779 0.150295
13.8996 0.157744
13.9212 0.13458
13.9428 0.192329
13.9645 0.146673
13.9861 0.113272
14.0077 0.0650879
14.0294 -0.123958
14.051 -0.148717
14.0726 0.136867
14.0943 0.0403576
14.1159 0.00125922
14.1375 -0.0244147
14.1592 0.131561
14.1808 0.171186
14.2024 0.166506
14.2241 -0.118733
14.2457 -0.122604
14.2673 8.95032e-05
14.289 0.0755151
14.3106 -0.0833594
14.3322 -0.0781133
14.3539 -0.124079
14.3755 0.0183829
14.3971 0.15552
14.4188 -0.175481
14.4404 -0.277763
14.462 -0.250802
14.4837 -0.460578
14.5053 -0.433235
14.5269 -0.38363
14.5486 -0.0812726
14.5702 -0.172277
14.5918 -0.11042
14.6135 -0.0463947
14.6351 -0.050753
14.6567 0.0660305
14.6784 -0.202121
14.7 -0.385805
14.7216 -0.410509
14.7433 -0.286553
14.7649 -0.0825718
14.7865 0.0151557
14.8082 0.0151408
14.8298 0.0817481
14.8514 0.0597017
14.8731 -0.0916711
14.8947 -0.036628
14.9163 0.0618662
14.938 0.23736
14.9596 0.0415685
14.9812 0.155163
15.0029 -0.00142127
15.0245 0.0537219
15.0461 -0.196122
15.0678 -0.137144
15.0894 -0.0650765
15.111 -0.0230322
15.1327 0.0775972
15.1543 0.132913
15.1759 -0.179141
15.1976 -0.0575456
15.2192 0.0104815
15.2408 -0.0747013
15.2625 -0.424633
15.2841 -0.530811
15.3058 -0.312006
15.3274 -0.3964
15.349 -0.143433
15.3707 -0.016258
15.3923 -0.0794606
15.4139 -0.506991
15.4356 -0.609687
15.4572 -0.284008
15.4788 -0.408776
15.5005 -0.300772
15.5221 -0.268786
15.5437 -0.362384
15.5654 -0.122536
15.587 -0.138088
15.6086 -0.427612
15.6303 -0.504828
15.6519 -0.504683
15.6735 -0.401168
15.6952 -0.356072
15.7168 -0.231858
15.7384 -0.144322
15.7601 -0.237007
15.7817 -0.233745
15.8033 -0.246466
15.825 -0.687756
15.8466 -0.483056
15.8682 -0.237228
15.8899 -0.299773
15.9115 -0.327818
15.9331 -0.177812
15.9548 -0.226775
15.9764 -0.0413724
15.998 -0.189445
