# xPDFsuite Configuration #
[PDF]
wavelength = 0.1
dataformat = Qnm
inputfile = glass.chi
backgroundfile = glass.chi
mode = xray
bgscale = 0.0
composition = TiO2
outputtype = gr
qmaxinst = 20.0
qmin = 0.7
qmax = 16.0
rmax = 100.0
rmin = 0.0
rstep = 0.01
rpoly = 1.0

#### start data
#S 1
#L r($\AA$)  G($\AA^{-2}$)
0 0
0.01 -0.0111026
0.02 -0.0219638
0.03 -0.0323679
0.04 -0.0421075
0.05 -0.0509869
0.06 -0.0588261
0.07 -0.0654634
0.08 -0.0706753
0.09 -0.0743451
0.1 -0.0764564
0.11 -0.0769555
0.12 -0.0758177
0.13 -0.0730489
0.14 -0.0686853
0.15 -0.0627808
0.16 -0.0553173
0.17 -0.0465721
0.18 -0.0367004
0.19 -0.0258804
0.2 -0.0143103
0.21 -0.00220521
0.22 0.0102063
0.23 0.0226738
0.24 0.0349199
0.25 0.0466977
0.26 0.0577658
0.27 0.0678903
0.28 0.0768492
0.29 0.0844363
0.3 0.0904353
0.31 0.0945422
0.32 0.0967672
0.33 0.0970084
0.34 0.0951952
0.35 0.0912901
0.36 0.0852891
0.37 0.077223
0.38 0.0670168
0.39 0.054871
0.4 0.0409893
0.41 0.0255422
0.42 0.00872884
0.43 -0.00922635
0.44 -0.0280766
0.45 -0.0475646
0.46 -0.0673935
0.47 -0.0872233
0.48 -0.106756
0.49 -0.125692
0.5 -0.143737
0.51 -0.160604
0.52 -0.17602
0.53 -0.189564
0.54 -0.20108
0.55 -0.210401
0.56 -0.217349
0.57 -0.221776
0.58 -0.223565
0.59 -0.222636
0.6 -0.218846
0.61 -0.212081
0.62 -0.202574
0.63 -0.190389
0.64 -0.175627
0.65 -0.158417
0.66 -0.138918
0.67 -0.117314
0.68 -0.0936608
0.69 -0.0683546
0.7 -0.0416695
0.71 -0.0138624
0.72 0.0148022
0.73 0.044056
0.74 0.073631
0.75 0.103253
0.76 0.132626
0.77 0.161502
0.78 0.18965
0.79 0.21685
0.8 0.242902
0.81 0.267621
0.82 0.290841
0.83 0.312241
0.84 0.331837
0.85 0.349534
0.86 0.365243
0.87 0.378892
0.88 0.390422
0.89 0.399786
0.9 0.406833
0.91 0.411521
0.92 0.413951
0.93 0.414104
0.94 0.411963
0.95 0.407512
0.96 0.400732
0.97 0.391602
0.98 0.379854
0.99 0.365709
1 0.349141
1.01 0.330124
1.02 0.308633
1.03 0.284646
1.04 0.258149
1.05 0.228985
1.06 0.197196
1.07 0.162923
1.08 0.126214
1.09 0.087138
1.1 0.045795
1.11 0.00231484
1.12 -0.0431554
1.13 -0.0905351
1.14 -0.139384
1.15 -0.189404
1.16 -0.240254
1.17 -0.291545
1.18 -0.342849
1.19 -0.393691
1.2 -0.443454
1.21 -0.491543
1.22 -0.537409
1.23 -0.580438
1.24 -0.619996
1.25 -0.655441
1.26 -0.686128
1.27 -0.711301
1.28 -0.729857
1.29 -0.741683
1.3 -0.74623
1.31 -0.742996
1.32 -0.731537
1.33 -0.711481
1.34 -0.682532
1.35 -0.643783
1.36 -0.595544
1.37 -0.538103
1.38 -0.471585
1.39 -0.396227
1.4 -0.312382
1.41 -0.220517
1.42 -0.121033
1.43 -0.0143775
1.44 0.0980452
1.45 0.215308
1.46 0.336391
1.47 0.460197
1.48 0.585557
1.49 0.711247
1.5 0.835808
1.51 0.957864
1.52 1.07613
1.53 1.18932
1.54 1.29615
1.55 1.39541
1.56 1.48593
1.57 1.56623
1.58 1.63484
1.59 1.69159
1.6 1.73575
1.61 1.76671
1.62 1.78403
1.63 1.78739
1.64 1.77665
1.65 1.75052
1.66 1.71035
1.67 1.6567
1.68 1.59009
1.69 1.51121
1.7 1.42086
1.71 1.32001
1.72 1.20934
1.73 1.09006
1.74 0.96402
1.75 0.832554
1.76 0.697055
1.77 0.55894
1.78 0.419637
1.79 0.280565
1.8 0.143413
1.81 0.00948004
1.82 -0.119985
1.83 -0.243807
1.84 -0.360914
1.85 -0.470344
1.86 -0.57126
1.87 -0.662445
1.88 -0.743268
1.89 -0.813847
1.9 -0.87395
1.91 -0.923493
1.92 -0.962538
1.93 -0.991286
1.94 -1.01003
1.95 -1.01837
1.96 -1.01791
1.97 -1.00934
1.98 -0.99345
1.99 -0.971083
2 -0.943143
2.01 -0.910568
2.02 -0.874154
2.03 -0.83505
2.04 -0.794359
2.05 -0.752993
2.06 -0.711817
2.07 -0.671637
2.08 -0.633189
2.09 -0.597165
2.1 -0.564422
2.11 -0.53517
2.12 -0.509751
2.13 -0.488401
2.14 -0.471255
2.15 -0.458343
2.16 -0.449596
2.17 -0.445113
2.18 -0.444468
2.19 -0.447168
2.2 -0.452801
2.21 -0.460898
2.22 -0.470946
2.23 -0.482401
2.24 -0.494704
2.25 -0.507233
2.26 -0.519365
2.27 -0.530559
2.28 -0.540307
2.29 -0.548142
2.3 -0.553651
2.31 -0.556477
2.32 -0.556084
2.33 -0.552389
2.34 -0.545353
2.35 -0.534931
2.36 -0.521156
2.37 -0.504136
2.38 -0.484052
2.39 -0.461084
2.4 -0.435473
2.41 -0.407816
2.42 -0.378544
2.43 -0.348124
2.44 -0.317051
2.45 -0.285841
2.46 -0.255015
2.47 -0.225216
2.48 -0.19694
2.49 -0.170648
2.5 -0.146783
2.51 -0.125748
2.52 -0.107896
2.53 -0.0935244
2.54 -0.083015
2.55 -0.0766708
2.56 -0.074321
2.57 -0.0759801
2.58 -0.0815925
2.59 -0.091034
2.6 -0.104114
2.61 -0.12058
2.62 -0.140376
2.63 -0.162837
2.64 -0.187512
2.65 -0.213941
2.66 -0.241642
2.67 -0.270108
2.68 -0.298821
2.69 -0.327223
2.7 -0.354717
2.71 -0.380827
2.72 -0.405077
2.73 -0.427025
2.74 -0.446262
2.75 -0.462424
2.76 -0.475195
2.77 -0.483911
2.78 -0.488723
2.79 -0.489502
2.8 -0.48617
2.81 -0.478708
2.82 -0.467154
2.83 -0.451602
2.84 -0.432002
2.85 -0.4086
2.86 -0.381846
2.87 -0.352036
2.88 -0.319501
2.89 -0.284601
2.9 -0.247719
2.91 -0.209249
2.92 -0.169541
2.93 -0.129163
2.94 -0.0885333
2.95 -0.0480616
2.96 -0.00814568
2.97 0.0308338
2.98 0.0685174
2.99 0.104448
3 0.138318
3.01 0.169933
3.02 0.19906
3.03 0.225504
3.04 0.249102
3.05 0.269732
3.06 0.287262
3.07 0.301398
3.08 0.312414
3.09 0.320336
3.1 0.325219
3.11 0.32715
3.12 0.326243
3.13 0.322633
3.14 0.316312
3.15 0.307576
3.16 0.296711
3.17 0.283927
3.18 0.269447
3.19 0.253499
3.2 0.236316
3.21 0.21812
3.22 0.19913
3.23 0.179659
3.24 0.159937
3.25 0.140188
3.26 0.120627
3.27 0.101461
3.28 0.0828834
3.29 0.0651525
3.3 0.0484119
3.31 0.0327909
3.32 0.0184234
3.33 0.00542654
3.34 -0.00610021
3.35 -0.0160755
3.36 -0.0243851
3.37 -0.0309102
3.38 -0.0357529
3.39 -0.0389134
3.4 -0.0404113
3.41 -0.0402856
3.42 -0.0385936
3.43 -0.0354113
3.44 -0.0307184
3.45 -0.0247376
3.46 -0.017622
3.47 -0.00951399
3.48 -0.000568042
3.49 0.00905121
3.5 0.0191709
3.51 0.0296169
3.52 0.0401854
3.53 0.0506729
3.54 0.0608966
3.55 0.0706786
3.56 0.0798475
3.57 0.0882417
3.58 0.0957115
3.59 0.102008
3.6 0.107097
3.61 0.110894
3.62 0.113326
3.63 0.114343
3.64 0.113918
3.65 0.112049
3.66 0.108695
3.67 0.103901
3.68 0.0978302
3.69 0.0905867
3.7 0.0822983
3.71 0.073114
3.72 0.063202
3.73 0.0527474
3.74 0.0419356
3.75 0.0310329
3.76 0.0202594
3.77 0.00983857
3.78 -6.09027e-06
3.79 -0.00905489
3.8 -0.0170954
3.81 -0.023847
3.82 -0.0291078
3.83 -0.0327749
3.84 -0.0347057
3.85 -0.0347822
3.86 -0.0329126
3.87 -0.0290336
3.88 -0.0230958
3.89 -0.0149152
3.9 -0.00472892
3.91 0.0073955
3.92 0.0213602
3.93 0.0370381
3.94 0.0542751
3.95 0.0728914
3.96 0.0927463
3.97 0.113558
3.98 0.135038
3.99 0.156932
4 0.178979
4.01 0.200912
4.02 0.222465
4.03 0.243361
4.04 0.263251
4.05 0.281958
4.06 0.299257
4.07 0.314944
4.08 0.328837
4.09 0.340776
4.1 0.350629
4.11 0.358127
4.12 0.36328
4.13 0.366121
4.14 0.366643
4.15 0.364866
4.16 0.360841
4.17 0.354645
4.18 0.346331
4.19 0.335934
4.2 0.323769
4.21 0.310006
4.22 0.294825
4.23 0.278421
4.24 0.260994
4.25 0.242751
4.26 0.223866
4.27 0.204603
4.28 0.185177
4.29 0.16578
4.3 0.146595
4.31 0.127792
4.32 0.109528
4.33 0.0919723
4.34 0.0752942
4.35 0.0595463
4.36 0.0448142
4.37 0.0311658
4.38 0.0186521
4.39 0.00730713
4.4 -0.00285038
4.41 -0.0117099
4.42 -0.0193723
4.43 -0.0258798
4.44 -0.0312656
4.45 -0.0355706
4.46 -0.0388421
4.47 -0.0411321
4.48 -0.0424594
4.49 -0.0428682
4.5 -0.0424737
4.51 -0.0413305
4.52 -0.0394911
4.53 -0.0370046
4.54 -0.0339164
4.55 -0.0302677
4.56 -0.0260471
4.57 -0.0213376
4.58 -0.0161704
4.59 -0.0105699
4.6 -0.00455734
4.61 0.00184799
4.62 0.00862836
4.63 0.0157835
4.64 0.0232952
4.65 0.0311246
4.66 0.03925
4.67 0.0476472
4.68 0.0562881
4.69 0.0651403
4.7 0.0741673
4.71 0.0833363
4.72 0.0925818
4.73 0.101852
4.74 0.111088
4.75 0.120231
4.76 0.129216
4.77 0.137976
4.78 0.14642
4.79 0.154473
4.8 0.16208
4.81 0.169173
4.82 0.175689
4.83 0.181567
4.84 0.18675
4.85 0.191181
4.86 0.194745
4.87 0.197481
4.88 0.199365
4.89 0.200379
4.9 0.200518
4.91 0.199783
4.92 0.198186
4.93 0.195693
4.94 0.192361
4.95 0.18826
4.96 0.183437
4.97 0.177942
4.98 0.171831
4.99 0.165164
5 0.157996
5.01 0.150368
5.02 0.142386
5.03 0.134114
5.04 0.125611
5.05 0.116934
5.06 0.108137
5.07 0.0992676
5.08 0.0903686
5.09 0.0814814
5.1 0.0726353
5.11 0.0638527
5.12 0.0551498
5.13 0.0465371
5.14 0.0380194
5.15 0.0295993
5.16 0.0212769
5.17 0.0130368
5.18 0.00486933
5.19 -0.00323636
5.2 -0.011291
5.21 -0.0193044
5.22 -0.0272844
5.23 -0.0352335
5.24 -0.0431539
5.25 -0.0510416
5.26 -0.0588869
5.27 -0.0666743
5.28 -0.0743825
5.29 -0.0819844
5.3 -0.0894409
5.31 -0.0967018
5.32 -0.103733
5.33 -0.110485
5.34 -0.116908
5.35 -0.122946
5.36 -0.128545
5.37 -0.13365
5.38 -0.13815
5.39 -0.142035
5.4 -0.145263
5.41 -0.147795
5.42 -0.149594
5.43 -0.150635
5.44 -0.150898
5.45 -0.150338
5.46 -0.148943
5.47 -0.146773
5.48 -0.143853
5.49 -0.140215
5.5 -0.135902
5.51 -0.130968
5.52 -0.125473
5.53 -0.119446
5.54 -0.113018
5.55 -0.106275
5.56 -0.0993027
5.57 -0.0921916
5.58 -0.0850317
5.59 -0.0779128
5.6 -0.0709333
5.61 -0.0641884
5.62 -0.0577472
5.63 -0.0516793
5.64 -0.0460459
5.65 -0.0408993
5.66 -0.0362813
5.67 -0.032225
5.68 -0.0288087
5.69 -0.0259798
5.7 -0.0237323
5.71 -0.0220491
5.72 -0.0209023
5.73 -0.0202544
5.74 -0.0200585
5.75 -0.0202804
5.76 -0.0208439
5.77 -0.0216636
5.78 -0.0226687
5.79 -0.0237864
5.8 -0.0249437
5.81 -0.0260685
5.82 -0.0270898
5.83 -0.0279218
5.84 -0.0285173
5.85 -0.0288249
5.86 -0.0288012
5.87 -0.0284114
5.88 -0.0276298
5.89 -0.0264401
5.9 -0.0248076
5.91 -0.0227501
5.92 -0.0202979
5.93 -0.0174741
5.94 -0.0143101
5.95 -0.0108441
5.96 -0.00712064
5.97 -0.0031858
5.98 0.000910993
5.99 0.00509691
6 0.00931551
6.01 0.013511
6.02 0.0176295
6.03 0.02162
6.04 0.025436
6.05 0.0290163
6.06 0.032333
6.07 0.0353654
6.08 0.0380937
6.09 0.0405057
6.1 0.042597
6.11 0.0443706
6.12 0.0458285
6.13 0.0469764
6.14 0.0478626
6.15 0.0485166
6.16 0.0489725
6.17 0.0492673
6.18 0.0494399
6.19 0.0495305
6.2 0.0495785
6.21 0.049629
6.22 0.0497178
6.23 0.0498764
6.24 0.0501316
6.25 0.0505049
6.26 0.0510118
6.27 0.0516666
6.28 0.0524755
6.29 0.0534221
6.3 0.0544932
6.31 0.0556689
6.32 0.0569232
6.33 0.0582248
6.34 0.0595375
6.35 0.0608143
6.36 0.06201
6.37 0.0630797
6.38 0.0639778
6.39 0.0646592
6.4 0.0650806
6.41 0.0652014
6.42 0.0649684
6.43 0.0643406
6.44 0.0633142
6.45 0.0618712
6.46 0.0600006
6.47 0.0576991
6.48 0.0549708
6.49 0.0518274
6.5 0.0482506
6.51 0.0443095
6.52 0.0400404
6.53 0.035484
6.54 0.0306859
6.55 0.0256962
6.56 0.0205679
6.57 0.0153548
6.58 0.0101213
6.59 0.00492708
6.6 -0.000173797
6.61 -0.00512979
6.62 -0.00989303
6.63 -0.0144202
6.64 -0.0186717
6.65 -0.0225837
6.66 -0.0261608
6.67 -0.0293863
6.68 -0.0322507
6.69 -0.0347516
6.7 -0.0368938
6.71 -0.0386884
6.72 -0.0401338
6.73 -0.041263
6.74 -0.042119
6.75 -0.0427346
6.76 -0.043145
6.77 -0.0433873
6.78 -0.0434994
6.79 -0.043518
6.8 -0.043479
6.81 -0.0434237
6.82 -0.0433818
6.83 -0.0433792
6.84 -0.043437
6.85 -0.0435707
6.86 -0.0437905
6.87 -0.0441066
6.88 -0.0445129
6.89 -0.0449968
6.9 -0.0455436
6.91 -0.0461334
6.92 -0.0467418
6.93 -0.0473406
6.94 -0.0478966
6.95 -0.0483678
6.96 -0.048723
6.97 -0.0489276
6.98 -0.048948
6.99 -0.0487523
7 -0.0483119
7.01 -0.0476021
7.02 -0.0465786
7.03 -0.045241
7.04 -0.0435898
7.05 -0.0416243
7.06 -0.0393502
7.07 -0.0367802
7.08 -0.0339334
7.09 -0.030829
7.1 -0.0274936
7.11 -0.0239842
7.12 -0.020344
7.13 -0.0166198
7.14 -0.0128613
7.15 -0.00912022
7.16 -0.00544883
7.17 -0.00191452
7.18 0.00143545
7.19 0.00455583
7.2 0.00740272
7.21 0.00993681
7.22 0.0121242
7.23 0.0139371
7.24 0.0153384
7.25 0.0163019
7.26 0.0168493
7.27 0.0169836
7.28 0.0167149
7.29 0.0160603
7.3 0.0150437
7.31 0.0136952
7.32 0.0120256
7.33 0.010105
7.34 0.00798075
7.35 0.00569961
7.36 0.00330979
7.37 0.000859713
7.38 -0.001603
7.39 -0.00402885
7.4 -0.00636864
7.41 -0.00858669
7.42 -0.0106498
7.43 -0.0125304
7.44 -0.0142066
7.45 -0.0156634
7.46 -0.0168922
7.47 -0.0178676
7.48 -0.01862
7.49 -0.0191625
7.5 -0.019514
7.51 -0.0196987
7.52 -0.0197454
7.53 -0.0196868
7.54 -0.0195568
7.55 -0.0193991
7.56 -0.0192554
7.57 -0.0191642
7.58 -0.0191625
7.59 -0.0192849
7.6 -0.0195629
7.61 -0.0200253
7.62 -0.0207154
7.63 -0.0216301
7.64 -0.022779
7.65 -0.024165
7.66 -0.0257847
7.67 -0.027628
7.68 -0.0296787
7.69 -0.031924
7.7 -0.0343274
7.71 -0.0368469
7.72 -0.0394442
7.73 -0.0420775
7.74 -0.044703
7.75 -0.0472753
7.76 -0.0497464
7.77 -0.0520557
7.78 -0.0541702
7.79 -0.0560504
7.8 -0.0576603
7.81 -0.0589691
7.82 -0.0599509
7.83 -0.0605861
7.84 -0.0608347
7.85 -0.0607049
7.86 -0.0602107
7.87 -0.0593611
7.88 -0.0581719
7.89 -0.0566649
7.9 -0.0548681
7.91 -0.0528093
7.92 -0.0505184
7.93 -0.0480576
7.94 -0.0454715
7.95 -0.0428058
7.96 -0.0401067
7.97 -0.0374199
7.98 -0.0347895
7.99 -0.0322681
8 -0.0298918
8.01 -0.0276908
8.02 -0.0256925
8.03 -0.0239186
8.04 -0.0223847
8.05 -0.0211002
8.06 -0.0200757
8.07 -0.0193162
8.08 -0.0187915
8.09 -0.0184838
8.1 -0.01837
8.11 -0.0184223
8.12 -0.0186085
8.13 -0.0188935
8.14 -0.0192415
8.15 -0.0196047
8.16 -0.0199427
8.17 -0.0202168
8.18 -0.0203899
8.19 -0.0204275
8.2 -0.0202987
8.21 -0.0199677
8.22 -0.0194052
8.23 -0.0186087
8.24 -0.0175691
8.25 -0.016283
8.26 -0.0147534
8.27 -0.0129892
8.28 -0.0110054
8.29 -0.00880528
8.3 -0.00643556
8.31 -0.00392865
8.32 -0.00131903
8.33 0.00135611
8.34 0.00405769
8.35 0.00674569
8.36 0.00937535
8.37 0.0119015
8.38 0.0142908
8.39 0.0165093
8.4 0.0185267
8.41 0.0203172
8.42 0.0218597
8.43 0.0231383
8.44 0.0241141
8.45 0.0248125
8.46 0.0252369
8.47 0.0253966
8.48 0.0253065
8.49 0.0249864
8.5 0.024461
8.51 0.023751
8.52 0.022895
8.53 0.0219365
8.54 0.0209123
8.55 0.0198597
8.56 0.0188158
8.57 0.0178167
8.58 0.0168973
8.59 0.0161015
8.6 0.0154478
8.61 0.0149585
8.62 0.014651
8.63 0.0145375
8.64 0.0146248
8.65 0.014914
8.66 0.0154128
8.67 0.0161037
8.68 0.0169624
8.69 0.0179675
8.7 0.0190934
8.71 0.0203109
8.72 0.0215878
8.73 0.02289
8.74 0.0241768
8.75 0.0254108
8.76 0.0265566
8.77 0.0275807
8.78 0.0284516
8.79 0.0291408
8.8 0.0296238
8.81 0.0298619
8.82 0.0298484
8.83 0.0295812
8.84 0.0290566
8.85 0.0282765
8.86 0.0272479
8.87 0.0259834
8.88 0.0244954
8.89 0.0227986
8.9 0.0209371
8.91 0.0189412
8.92 0.0168437
8.93 0.0146793
8.94 0.0124833
8.95 0.0102917
8.96 0.0081457
8.97 0.00607988
8.98 0.00412408
8.99 0.00230601
9 0.000649718
9.01 -0.000824943
9.02 -0.0021027
9.03 -0.00316585
9.04 -0.00400123
9.05 -0.00462488
9.06 -0.00504297
9.07 -0.00526648
9.08 -0.00531084
9.09 -0.00519556
9.1 -0.00494363
9.11 -0.00457343
9.12 -0.00412475
9.13 -0.00362901
9.14 -0.00311662
9.15 -0.00261773
9.16 -0.00216153
9.17 -0.00177546
9.18 -0.00148967
9.19 -0.00133106
9.2 -0.00131085
9.21 -0.00144241
9.22 -0.00173464
9.23 -0.00219179
9.24 -0.00281338
9.25 -0.00359422
9.26 -0.00453803
9.27 -0.00561461
9.28 -0.00680407
9.29 -0.00808402
9.3 -0.00942927
9.31 -0.0108125
9.32 -0.0122048
9.33 -0.0135739
9.34 -0.0148858
9.35 -0.0161134
9.36 -0.0172297
9.37 -0.0182099
9.38 -0.0190324
9.39 -0.019679
9.4 -0.0201347
9.41 -0.020369
9.42 -0.0203975
9.43 -0.020221
9.44 -0.0198447
9.45 -0.0192787
9.46 -0.0185377
9.47 -0.0176402
9.48 -0.0166023
9.49 -0.0154553
9.5 -0.0142339
9.51 -0.0129688
9.52 -0.0116916
9.53 -0.0104341
9.54 -0.009228
9.55 -0.00810484
9.56 -0.00710536
9.57 -0.00624658
9.58 -0.00555052
9.59 -0.00503538
9.6 -0.00471519
9.61 -0.0045995
9.62 -0.00469309
9.63 -0.00500988
9.64 -0.00553732
9.65 -0.00625686
9.66 -0.00715351
9.67 -0.00820826
9.68 -0.00939862
9.69 -0.0106991
9.7 -0.0120829
9.71 -0.0135203
9.72 -0.0149741
9.73 -0.0164135
9.74 -0.0178086
9.75 -0.0191307
9.76 -0.0203534
9.77 -0.0214528
9.78 -0.0223959
9.79 -0.0231715
9.8 -0.0237721
9.81 -0.0241907
9.82 -0.0244247
9.83 -0.0244763
9.84 -0.0243521
9.85 -0.0240592
9.86 -0.0236076
9.87 -0.0230301
9.88 -0.0223494
9.89 -0.021591
9.9 -0.0207823
9.91 -0.0199519
9.92 -0.0191289
9.93 -0.0183476
9.94 -0.0176364
9.95 -0.0170201
9.96 -0.016522
9.97 -0.0161625
9.98 -0.0159581
9.99 -0.0159216
10 -0.016068
10.01 -0.016407
10.02 -0.0169243
10.03 -0.0176133
10.04 -0.0184629
10.05 -0.0194577
10.06 -0.0205785
10.07 -0.0218026
10.08 -0.0231087
10.09 -0.0244596
10.1 -0.0258241
10.11 -0.0271715
10.12 -0.0284707
10.13 -0.0296914
10.14 -0.0308045
10.15 -0.0317761
10.16 -0.0325761
10.17 -0.0331929
10.18 -0.0336102
10.19 -0.0338159
10.2 -0.0338024
10.21 -0.0335668
10.22 -0.0331111
10.23 -0.0324212
10.24 -0.0315311
10.25 -0.0304581
10.26 -0.0292227
10.27 -0.0278487
10.28 -0.0263626
10.29 -0.0247933
10.3 -0.02317
10.31 -0.0215285
10.32 -0.0199023
10.33 -0.018322
10.34 -0.0168164
10.35 -0.0154121
10.36 -0.0141331
10.37 -0.0130007
10.38 -0.012049
10.39 -0.0112743
10.4 -0.0106837
10.41 -0.0102796
10.42 -0.01006
10.43 -0.0100181
10.44 -0.0101427
10.45 -0.0104269
10.46 -0.010846
10.47 -0.0113706
10.48 -0.0119754
10.49 -0.0126333
10.5 -0.0133157
10.51 -0.0139937
10.52 -0.0146378
10.53 -0.0152123
10.54 -0.0156948
10.55 -0.0160622
10.56 -0.0162938
10.57 -0.0163727
10.58 -0.0162857
10.59 -0.0160239
10.6 -0.0155701
10.61 -0.014931
10.62 -0.0141187
10.63 -0.0131431
10.64 -0.0120181
10.65 -0.0107617
10.66 -0.00939493
10.67 -0.00794067
10.68 -0.00642482
10.69 -0.00488257
10.7 -0.00334302
10.71 -0.00183533
10.72 -0.000388076
10.73 0.000971427
10.74 0.0022178
10.75 0.00331593
10.76 0.00425134
10.77 0.00501259
10.78 0.00558849
10.79 0.00597216
10.8 0.00616116
10.81 0.0061576
10.82 0.00596282
10.83 0.00558155
10.84 0.00504374
10.85 0.00436891
10.86 0.00357972
10.87 0.00270138
10.88 0.00176111
10.89 0.000787482
10.9 -0.000188062
10.91 -0.00113309
10.92 -0.00201945
10.93 -0.00282058
10.94 -0.00351218
10.95 -0.00407272
10.96 -0.00448397
10.97 -0.00472479
10.98 -0.00477893
10.99 -0.00465271
11 -0.00434578
11.01 -0.00386228
11.02 -0.00321081
11.03 -0.00240416
11.04 -0.00145907
11.05 -0.000386759
11.06 0.000776702
11.07 0.00200377
11.08 0.00326642
11.09 0.00453555
11.1 0.00578175
11.11 0.00697591
11.12 0.00808494
11.13 0.00907784
11.14 0.00993629
11.15 0.01064
11.16 0.0111724
11.17 0.0115206
11.18 0.0116762
11.19 0.0116351
11.2 0.0113781
11.21 0.0109315
11.22 0.0103066
11.23 0.0095181
11.24 0.00858486
11.25 0.00752903
11.26 0.0063757
11.27 0.00515011
11.28 0.00388599
11.29 0.002617
11.3 0.0013736
11.31 0.000185698
11.32 -0.000918042
11.33 -0.00191085
11.34 -0.00276746
11.35 -0.00345022
11.36 -0.00395637
11.37 -0.00427333
11.38 -0.0043929
11.39 -0.00431138
11.4 -0.00402969
11.41 -0.00355331
11.42 -0.00288141
11.43 -0.00203455
11.44 -0.00103945
11.45 8.15837e-05
11.46 0.00130343
11.47 0.00259876
11.48 0.00393862
11.49 0.00529288
11.5 0.00662681
11.51 0.00791015
11.52 0.00911479
11.53 0.0102146
11.54 0.011186
11.55 0.0120084
11.56 0.012665
11.57 0.0131291
11.58 0.0133983
11.59 0.0134755
11.6 0.0133619
11.61 0.013063
11.62 0.0125888
11.63 0.0119532
11.64 0.011171
11.65 0.0102587
11.66 0.00925219
11.67 0.00817767
11.68 0.00706287
11.69 0.00593624
11.7 0.00482633
11.71 0.00376109
11.72 0.00277509
11.73 0.00189167
11.74 0.00113072
11.75 0.000510917
11.76 4.74767e-05
11.77 -0.000248212
11.78 -0.000368826
11.79 -0.00030564
11.8 -5.30658e-05
11.81 0.00036922
11.82 0.000950723
11.83 0.00167719
11.84 0.00253099
11.85 0.00349148
11.86 0.00453556
11.87 0.00564103
11.88 0.00677446
11.89 0.00790777
11.9 0.00901397
11.91 0.0100668
11.92 0.0110413
11.93 0.0119145
11.94 0.0126602
11.95 0.0132554
11.96 0.0136948
11.97 0.0139688
11.98 0.0140716
11.99 0.0140014
12 0.0137607
12.01 0.0133554
12.02 0.0127821
12.03 0.0120699
12.04 0.0112375
12.05 0.010305
12.06 0.0092948
12.07 0.00823066
12.08 0.00713752
12.09 0.00604186
12.1 0.00497251
12.11 0.00395361
12.12 0.00300782
12.13 0.00215582
12.14 0.00141578
12.15 0.000803043
12.16 0.00032969
12.17 2.05165e-05
12.18 -0.000135439
12.19 -0.00013793
12.2 9.57486e-06
12.21 0.000300014
12.22 0.000722934
12.23 0.00126477
12.24 0.00191395
12.25 0.00264809
12.26 0.00344141
12.27 0.00427186
12.28 0.00511672
12.29 0.00595322
12.3 0.00675907
12.31 0.0075124
12.32 0.00818516
12.33 0.00876571
12.34 0.00923954
12.35 0.00959505
12.36 0.00982381
12.37 0.00992077
12.38 0.00988432
12.39 0.00970814
12.4 0.0094021
12.41 0.00898093
12.42 0.00845703
12.43 0.00784548
12.44 0.00716364
12.45 0.00643069
12.46 0.00566703
12.47 0.00489591
12.48 0.00414138
12.49 0.00342471
12.5 0.00276622
12.51 0.00218485
12.52 0.00169761
12.53 0.00131924
12.54 0.00107141
12.55 0.000958672
12.56 0.000982163
12.57 0.00114355
12.58 0.0014411
12.59 0.00186974
12.6 0.00242115
12.61 0.00308645
12.62 0.00385492
12.63 0.00470076
12.64 0.0056051
12.65 0.00654771
12.66 0.00750745
12.67 0.00846283
12.68 0.00939251
12.69 0.0102704
12.7 0.0110779
12.71 0.0117989
12.72 0.0124184
