# xPDFsuite Configuration #
[PDF]
wavelength = 0.1
dataformat = Qnm
inputfile = ito-glass.chi
backgroundfile = glass.chi
mode = xray
bgscale = 1.01363045247
composition = In4Sn3O12
outputtype = gr
qmaxinst = 20.0
qmin = 0.7
qmax = 16.0
rmax = 100.0
rmin = 0.0
rstep = 0.01
rpoly = 1.0

#### start data
#S 1
#L r($\AA$)  G($\AA^{-2}$)
0 0
0.01 -0.033312
0.02 -0.0654015
0.03 -0.0951918
0.04 -0.121677
0.05 -0.143953
0.06 -0.161242
0.07 -0.172922
0.08 -0.178179
0.09 -0.176793
0.1 -0.169049
0.11 -0.155133
0.12 -0.135429
0.13 -0.110512
0.14 -0.0811288
0.15 -0.0481625
0.16 -0.0125477
0.17 0.0242299
0.18 0.0609547
0.19 0.0963863
0.2 0.129296
0.21 0.158503
0.22 0.18291
0.23 0.201107
0.24 0.212335
0.25 0.216238
0.26 0.212435
0.27 0.200771
0.28 0.181335
0.29 0.15446
0.3 0.120627
0.31 0.0803431
0.32 0.035307
0.33 -0.0131843
0.34 -0.0636648
0.35 -0.114533
0.36 -0.164092
0.37 -0.210585
0.38 -0.251761
0.39 -0.285901
0.4 -0.311553
0.41 -0.327249
0.42 -0.33171
0.43 -0.323886
0.44 -0.302997
0.45 -0.268212
0.46 -0.218645
0.47 -0.155671
0.48 -0.0799278
0.49 0.00758861
0.5 0.105532
0.51 0.212221
0.52 0.325665
0.53 0.443756
0.54 0.563416
0.55 0.68181
0.56 0.796086
0.57 0.903328
0.58 1.00062
0.59 1.08511
0.6 1.15347
0.61 1.20217
0.62 1.23019
0.63 1.23564
0.64 1.21706
0.65 1.17338
0.66 1.10401
0.67 1.00886
0.68 0.886116
0.69 0.738825
0.7 0.568948
0.71 0.37857
0.72 0.170248
0.73 -0.0530252
0.74 -0.287865
0.75 -0.530705
0.76 -0.777072
0.77 -1.02227
0.78 -1.26198
0.79 -1.49185
0.8 -1.7076
0.81 -1.90507
0.82 -2.08038
0.83 -2.22702
0.84 -2.34396
0.85 -2.42872
0.86 -2.4792
0.87 -2.49385
0.88 -2.47174
0.89 -2.4126
0.9 -2.31499
0.91 -2.18002
0.92 -2.01154
0.93 -1.812
0.94 -1.58444
0.95 -1.33241
0.96 -1.05993
0.97 -0.77139
0.98 -0.47091
0.99 -0.165075
1 0.140986
1.01 0.442125
1.02 0.733265
1.03 1.00949
1.04 1.26615
1.05 1.49728
1.06 1.69881
1.07 1.86864
1.08 2.00408
1.09 2.10306
1.1 2.16419
1.11 2.18673
1.12 2.17025
1.13 2.11236
1.14 2.01823
1.15 1.89001
1.16 1.73044
1.17 1.54279
1.18 1.33081
1.19 1.09865
1.2 0.850024
1.21 0.590709
1.22 0.326121
1.23 0.061116
1.24 -0.199528
1.25 -0.451203
1.26 -0.689558
1.27 -0.910182
1.28 -1.10769
1.29 -1.28066
1.3 -1.42666
1.31 -1.54387
1.32 -1.63105
1.33 -1.68765
1.34 -1.71372
1.35 -1.70781
1.36 -1.67286
1.37 -1.6118
1.38 -1.52719
1.39 -1.42205
1.4 -1.29981
1.41 -1.1642
1.42 -1.01909
1.43 -0.868865
1.44 -0.718438
1.45 -0.571984
1.46 -0.433556
1.47 -0.306995
1.48 -0.195857
1.49 -0.103338
1.5 -0.0342134
1.51 0.0104097
1.52 0.0293673
1.53 0.021596
1.54 -0.0133824
1.55 -0.0754537
1.56 -0.163914
1.57 -0.278313
1.58 -0.417319
1.59 -0.576729
1.6 -0.753636
1.61 -0.944742
1.62 -1.14642
1.63 -1.3548
1.64 -1.56582
1.65 -1.77479
1.66 -1.97724
1.67 -2.1691
1.68 -2.34643
1.69 -2.50552
1.7 -2.64295
1.71 -2.75567
1.72 -2.83972
1.73 -2.89217
1.74 -2.91315
1.75 -2.90165
1.76 -2.85718
1.77 -2.77978
1.78 -2.67006
1.79 -2.52915
1.8 -2.3559
1.81 -2.15553
1.82 -1.93082
1.83 -1.68476
1.84 -1.42065
1.85 -1.14205
1.86 -0.852728
1.87 -0.556403
1.88 -0.257576
1.89 0.0395004
1.9 0.330995
1.91 0.613221
1.92 0.882694
1.93 1.13618
1.94 1.37066
1.95 1.58117
1.96 1.76756
1.97 1.92809
1.98 2.06144
1.99 2.16669
2 2.24337
2.01 2.29139
2.02 2.30942
2.03 2.29877
2.04 2.26189
2.05 2.20025
2.06 2.11564
2.07 2.01008
2.08 1.88581
2.09 1.74509
2.1 1.58963
2.11 1.42358
2.12 1.24962
2.13 1.07046
2.14 0.888733
2.15 0.707038
2.16 0.52786
2.17 0.354055
2.18 0.187919
2.19 0.0312521
2.2 -0.114148
2.21 -0.246687
2.22 -0.364983
2.23 -0.467874
2.24 -0.55406
2.25 -0.621659
2.26 -0.67162
2.27 -0.7037
2.28 -0.717856
2.29 -0.714238
2.3 -0.693179
2.31 -0.655182
2.32 -0.599712
2.33 -0.528511
2.34 -0.443014
2.35 -0.344324
2.36 -0.233653
2.37 -0.112312
2.38 0.0183067
2.39 0.156915
2.4 0.302085
2.41 0.451648
2.42 0.603982
2.43 0.757445
2.44 0.910383
2.45 1.06115
2.46 1.20811
2.47 1.34907
2.48 1.48268
2.49 1.60757
2.5 1.72235
2.51 1.82573
2.52 1.9165
2.53 1.99362
2.54 2.05557
2.55 2.10104
2.56 2.13047
2.57 2.14349
2.58 2.13989
2.59 2.11969
2.6 2.08309
2.61 2.03049
2.62 1.96112
2.63 1.87718
2.64 1.77987
2.65 1.67042
2.66 1.55019
2.67 1.42069
2.68 1.28357
2.69 1.14037
2.7 0.993095
2.71 0.843941
2.72 0.694766
2.73 0.547406
2.74 0.403641
2.75 0.265163
2.76 0.133551
2.77 0.0112248
2.78 -0.101311
2.79 -0.203064
2.8 -0.293234
2.81 -0.371258
2.82 -0.436813
2.83 -0.489823
2.84 -0.529813
2.85 -0.557334
2.86 -0.573729
2.87 -0.579922
2.88 -0.577027
2.89 -0.566328
2.9 -0.549244
2.91 -0.527278
2.92 -0.501893
2.93 -0.475165
2.94 -0.448694
2.95 -0.424017
2.96 -0.402571
2.97 -0.385655
2.98 -0.374395
2.99 -0.370172
3 -0.373592
3.01 -0.384733
3.02 -0.403682
3.03 -0.430242
3.04 -0.463924
3.05 -0.503959
3.06 -0.549357
3.07 -0.598948
3.08 -0.650677
3.09 -0.702764
3.1 -0.753273
3.11 -0.800159
3.12 -0.84131
3.13 -0.874595
3.14 -0.897065
3.15 -0.906856
3.16 -0.9025
3.17 -0.882383
3.18 -0.845141
3.19 -0.789707
3.2 -0.715347
3.21 -0.621255
3.22 -0.506346
3.23 -0.372766
3.24 -0.221476
3.25 -0.0538529
3.26 0.128318
3.27 0.322864
3.28 0.527257
3.29 0.738946
3.3 0.954035
3.31 1.16895
3.32 1.38015
3.33 1.58401
3.34 1.77687
3.35 1.95516
3.36 2.11474
3.37 2.25106
3.38 2.36259
3.39 2.44677
3.4 2.50146
3.41 2.52499
3.42 2.51619
3.43 2.47442
3.44 2.39677
3.45 2.28627
3.46 2.14477
3.47 1.97413
3.48 1.77677
3.49 1.55562
3.5 1.31412
3.51 1.05565
3.52 0.784708
3.53 0.506932
3.54 0.227106
3.55 -0.0498758
3.56 -0.319093
3.57 -0.575688
3.58 -0.814955
3.59 -1.02992
3.6 -1.21802
3.61 -1.37585
3.62 -1.50027
3.63 -1.58872
3.64 -1.63925
3.65 -1.65053
3.66 -1.62002
3.67 -1.54752
3.68 -1.43626
3.69 -1.28788
3.7 -1.10466
3.71 -0.889528
3.72 -0.645964
3.73 -0.377972
3.74 -0.0884077
3.75 0.215356
3.76 0.528153
3.77 0.844668
3.78 1.15951
3.79 1.46732
3.8 1.76286
3.81 2.03983
3.82 2.29304
3.83 2.51912
3.84 2.71435
3.85 2.87549
3.86 2.99995
3.87 3.08575
3.88 3.13127
3.89 3.13222
3.9 3.09278
3.91 3.01389
3.92 2.8971
3.93 2.74459
3.94 2.55912
3.95 2.34393
3.96 2.10131
3.97 1.83651
3.98 1.55499
3.99 1.26131
4 0.960157
4.01 0.656193
4.02 0.354007
4.03 0.0581896
4.04 -0.225878
4.05 -0.495061
4.06 -0.745999
4.07 -0.975786
4.08 -1.18201
4.09 -1.36279
4.1 -1.51678
4.11 -1.64118
4.12 -1.73693
4.13 -1.8054
4.14 -1.84754
4.15 -1.86479
4.16 -1.85899
4.17 -1.83238
4.18 -1.78712
4.19 -1.72548
4.2 -1.6519
4.21 -1.56945
4.22 -1.48124
4.23 -1.39029
4.24 -1.29952
4.25 -1.21166
4.26 -1.12982
4.27 -1.05609
4.28 -0.992098
4.29 -0.939253
4.3 -0.898565
4.31 -0.870642
4.32 -0.855689
4.33 -0.853913
4.34 -0.865106
4.35 -0.887333
4.36 -0.919276
4.37 -0.959358
4.38 -1.00579
4.39 -1.0566
4.4 -1.10976
4.41 -1.16297
4.42 -1.21394
4.43 -1.26067
4.44 -1.30132
4.45 -1.33424
4.46 -1.358
4.47 -1.37146
4.48 -1.3733
4.49 -1.36273
4.5 -1.3404
4.51 -1.3066
4.52 -1.26195
4.53 -1.20742
4.54 -1.14426
4.55 -1.07403
4.56 -0.998201
4.57 -0.919454
4.58 -0.839994
4.59 -0.762066
4.6 -0.687939
4.61 -0.619852
4.62 -0.559948
4.63 -0.510829
4.64 -0.474583
4.65 -0.452103
4.66 -0.44456
4.67 -0.452789
4.68 -0.477258
4.69 -0.518048
4.7 -0.574864
4.71 -0.648451
4.72 -0.735939
4.73 -0.835753
4.74 -0.945976
4.75 -1.06438
4.76 -1.18849
4.77 -1.31558
4.78 -1.44262
4.79 -1.56623
4.8 -1.6834
4.81 -1.79117
4.82 -1.88667
4.83 -1.96719
4.84 -2.03027
4.85 -2.07349
4.86 -2.09296
4.87 -2.08919
4.88 -2.06123
4.89 -2.00852
4.9 -1.93099
4.91 -1.82903
4.92 -1.70349
4.93 -1.55432
4.94 -1.38414
4.95 -1.19607
4.96 -0.992687
4.97 -0.77689
4.98 -0.551825
4.99 -0.320833
5 -0.0874146
5.01 0.144398
5.02 0.370912
5.03 0.588682
5.04 0.794409
5.05 0.985004
5.06 1.15764
5.07 1.30981
5.08 1.43754
5.09 1.53993
5.1 1.61649
5.11 1.66646
5.12 1.68955
5.13 1.68591
5.14 1.65617
5.15 1.60075
5.16 1.52011
5.17 1.41812
5.18 1.29704
5.19 1.15936
5.2 1.00782
5.21 0.845306
5.22 0.674809
5.23 0.499204
5.24 0.322123
5.25 0.146573
5.26 -0.0246901
5.27 -0.18911
5.28 -0.344375
5.29 -0.488455
5.3 -0.619137
5.31 -0.734415
5.32 -0.834305
5.33 -0.918268
5.34 -0.986131
5.35 -1.03809
5.36 -1.07467
5.37 -1.09674
5.38 -1.10434
5.39 -1.10011
5.4 -1.08588
5.41 -1.06349
5.42 -1.03485
5.43 -1.00194
5.44 -0.96675
5.45 -0.931294
5.46 -0.89768
5.47 -0.86758
5.48 -0.842469
5.49 -0.823598
5.5 -0.811962
5.51 -0.808278
5.52 -0.812969
5.53 -0.826985
5.54 -0.849254
5.55 -0.879164
5.56 -0.915859
5.57 -0.958221
5.58 -1.00489
5.59 -1.0543
5.6 -1.10467
5.61 -1.15385
5.62 -1.19984
5.63 -1.24062
5.64 -1.27424
5.65 -1.29878
5.66 -1.31244
5.67 -1.31352
5.68 -1.29903
5.69 -1.26913
5.7 -1.2229
5.71 -1.15974
5.72 -1.07933
5.73 -0.981679
5.74 -0.86712
5.75 -0.735381
5.76 -0.587842
5.77 -0.426571
5.78 -0.253169
5.79 -0.0694831
5.8 0.122433
5.81 0.320348
5.82 0.521912
5.83 0.72448
5.84 0.925242
5.85 1.1217
5.86 1.31139
5.87 1.49198
5.88 1.66123
5.89 1.81711
5.9 1.95661
5.91 2.07846
5.92 2.18194
5.93 2.26609
5.94 2.3302
5.95 2.37391
5.96 2.39714
5.97 2.39972
5.98 2.38098
5.99 2.34354
6 2.28851
6.01 2.21726
6.02 2.13136
6.03 2.03252
6.04 1.92263
6.05 1.80313
6.06 1.67674
6.07 1.5458
6.08 1.4124
6.09 1.27854
6.1 1.14621
6.11 1.01724
6.12 0.893568
6.13 0.777271
6.14 0.669303
6.15 0.570846
6.16 0.482888
6.17 0.406219
6.18 0.341426
6.19 0.2889
6.2 0.249902
6.21 0.223601
6.22 0.20954
6.23 0.207362
6.24 0.216569
6.25 0.236547
6.26 0.266574
6.27 0.306158
6.28 0.354578
6.29 0.410286
6.3 0.472338
6.31 0.539782
6.32 0.611673
6.33 0.687083
6.34 0.765117
6.35 0.845001
6.36 0.925704
6.37 1.00645
6.38 1.08654
6.39 1.16531
6.4 1.24215
6.41 1.31651
6.42 1.38769
6.43 1.45511
6.44 1.51848
6.45 1.57738
6.46 1.63138
6.47 1.68009
6.48 1.72311
6.49 1.76002
6.5 1.78973
6.51 1.81245
6.52 1.8278
6.53 1.83537
6.54 1.83478
6.55 1.82564
6.56 1.80761
6.57 1.77982
6.58 1.74198
6.59 1.69431
6.6 1.63665
6.61 1.56889
6.62 1.491
6.63 1.40306
6.64 1.30517
6.65 1.19673
6.66 1.07915
6.67 0.952973
6.68 0.818853
6.69 0.677575
6.7 0.530038
6.71 0.377261
6.72 0.220191
6.73 0.0603066
6.74 -0.10089
6.75 -0.261999
6.76 -0.421569
6.77 -0.578114
6.78 -0.730133
6.79 -0.876029
6.8 -1.01359
6.81 -1.14198
6.82 -1.25989
6.83 -1.36608
6.84 -1.45946
6.85 -1.53904
6.86 -1.60401
6.87 -1.6526
6.88 -1.68486
6.89 -1.7011
6.9 -1.7013
6.91 -1.68562
6.92 -1.65443
6.93 -1.60833
6.94 -1.54779
6.95 -1.47309
6.96 -1.38658
6.97 -1.28958
6.98 -1.18355
6.99 -1.07009
7 -0.950855
7.01 -0.827605
7.02 -0.702107
7.03 -0.576504
7.04 -0.452664
7.05 -0.332367
7.06 -0.217336
7.07 -0.109212
7.08 -0.009533
7.09 0.0799427
7.1 0.157303
7.11 0.222236
7.12 0.273846
7.13 0.311423
7.14 0.334451
7.15 0.342615
7.16 0.3358
7.17 0.312814
7.18 0.275038
7.19 0.22327
7.2 0.158215
7.21 0.0807527
7.22 -0.00808395
7.23 -0.107118
7.24 -0.215334
7.25 -0.331331
7.26 -0.453012
7.27 -0.578793
7.28 -0.70705
7.29 -0.836136
7.3 -0.964403
7.31 -1.09022
7.32 -1.21145
7.33 -1.32678
7.34 -1.4348
7.35 -1.53417
7.36 -1.62366
7.37 -1.70215
7.38 -1.76867
7.39 -1.82175
7.4 -1.86048
7.41 -1.88516
7.42 -1.89547
7.43 -1.89128
7.44 -1.87261
7.45 -1.83967
7.46 -1.79281
7.47 -1.73123
7.48 -1.65707
7.49 -1.5712
7.5 -1.4746
7.51 -1.36838
7.52 -1.25375
7.53 -1.132
7.54 -1.00427
7.55 -0.872247
7.56 -0.737681
7.57 -0.60208
7.58 -0.466947
7.59 -0.333767
7.6 -0.203991
7.61 -0.0790572
7.62 0.0390152
7.63 0.149518
7.64 0.251354
7.65 0.343551
7.66 0.425278
7.67 0.495849
7.68 0.554742
7.69 0.600815
7.7 0.634162
7.71 0.655326
7.72 0.664524
7.73 0.662151
7.74 0.64877
7.75 0.625109
7.76 0.591921
7.77 0.549739
7.78 0.500576
7.79 0.445716
7.8 0.386532
7.81 0.32446
7.82 0.260981
7.83 0.197593
7.84 0.136018
7.85 0.0778305
7.86 0.0243685
7.87 -0.0230536
7.88 -0.0632265
7.89 -0.0950671
7.9 -0.117638
7.91 -0.129908
7.92 -0.130616
7.93 -0.120238
7.94 -0.0986175
7.95 -0.0658053
7.96 -0.0220581
7.97 0.0321621
7.98 0.0961944
7.99 0.169828
8 0.251387
8.01 0.339424
8.02 0.432571
8.03 0.529349
8.04 0.628185
8.05 0.727444
8.06 0.825355
8.07 0.919904
8.08 1.00956
8.09 1.09272
8.1 1.16789
8.11 1.23367
8.12 1.28882
8.13 1.33224
8.14 1.36182
8.15 1.37773
8.16 1.37974
8.17 1.3676
8.18 1.34134
8.19 1.30116
8.2 1.24753
8.21 1.18062
8.22 1.10117
8.23 1.01109
8.24 0.911662
8.25 0.804298
8.26 0.690523
8.27 0.571957
8.28 0.450278
8.29 0.327226
8.3 0.204796
8.31 0.0846612
8.32 -0.0315769
8.33 -0.142414
8.34 -0.246465
8.35 -0.342489
8.36 -0.428912
8.37 -0.504668
8.38 -0.569629
8.39 -0.623348
8.4 -0.665589
8.41 -0.696326
8.42 -0.715736
8.43 -0.724188
8.44 -0.721238
8.45 -0.708799
8.46 -0.687792
8.47 -0.659258
8.48 -0.624341
8.49 -0.584258
8.5 -0.540272
8.51 -0.493594
8.52 -0.445698
8.53 -0.397932
8.54 -0.351457
8.55 -0.307349
8.56 -0.266572
8.57 -0.229963
8.58 -0.198265
8.59 -0.172535
8.6 -0.152628
8.61 -0.138715
8.62 -0.130802
8.63 -0.128737
8.64 -0.132216
8.65 -0.140796
8.66 -0.154163
8.67 -0.171421
8.68 -0.191613
8.69 -0.213902
8.7 -0.237412
8.71 -0.261258
8.72 -0.284566
8.73 -0.306455
8.74 -0.325907
8.75 -0.342375
8.76 -0.355277
8.77 -0.364144
8.78 -0.368637
8.79 -0.368551
8.8 -0.363821
8.81 -0.3542
8.82 -0.34015
8.83 -0.322195
8.84 -0.30084
8.85 -0.276692
8.86 -0.250453
8.87 -0.222893
8.88 -0.194847
8.89 -0.167287
8.9 -0.141093
8.91 -0.117089
8.92 -0.0960471
8.93 -0.0786673
8.94 -0.0655539
8.95 -0.057197
8.96 -0.0543986
8.97 -0.0570601
8.98 -0.0650793
8.99 -0.0783063
9 -0.0964243
9.01 -0.118952
9.02 -0.145247
9.03 -0.174587
9.04 -0.205985
9.05 -0.238164
9.06 -0.269959
9.07 -0.300135
9.08 -0.327415
9.09 -0.350509
9.1 -0.368137
9.11 -0.378346
9.12 -0.380389
9.13 -0.373333
9.14 -0.356283
9.15 -0.3285
9.16 -0.289426
9.17 -0.238698
9.18 -0.175665
9.19 -0.100203
9.2 -0.013413
9.21 0.084118
9.22 0.191582
9.23 0.307955
9.24 0.432015
9.25 0.562357
9.26 0.697716
9.27 0.835773
9.28 0.974672
9.29 1.11252
9.3 1.24739
9.31 1.37736
9.32 1.50054
9.33 1.61457
9.34 1.71748
9.35 1.80821
9.36 1.88539
9.37 1.94786
9.38 1.99465
9.39 2.02505
9.4 2.03856
9.41 2.03324
9.42 2.01098
9.43 1.97215
9.44 1.9174
9.45 1.84759
9.46 1.76383
9.47 1.66743
9.48 1.55931
9.49 1.44149
9.5 1.31627
9.51 1.18551
9.52 1.05112
9.53 0.915027
9.54 0.779127
9.55 0.645309
9.56 0.515834
9.57 0.392079
9.58 0.275495
9.59 0.16736
9.6 0.0687527
9.61 -0.0194538
9.62 -0.0966087
9.63 -0.161493
9.64 -0.214274
9.65 -0.255473
9.66 -0.285398
9.67 -0.304558
9.68 -0.313651
9.69 -0.313545
9.7 -0.305117
9.71 -0.289177
9.72 -0.267666
9.73 -0.24189
9.74 -0.213186
9.75 -0.182893
9.76 -0.152322
9.77 -0.12273
9.78 -0.0955468
9.79 -0.0718538
9.8 -0.0525061
9.81 -0.0382838
9.82 -0.0298128
9.83 -0.0275558
9.84 -0.0318072
9.85 -0.0428756
9.86 -0.0610218
9.87 -0.0854846
9.88 -0.115871
9.89 -0.151653
9.9 -0.192182
9.91 -0.236709
9.92 -0.284401
9.93 -0.334475
9.94 -0.385749
9.95 -0.437226
9.96 -0.487964
9.97 -0.537051
9.98 -0.583625
9.99 -0.626892
10 -0.665971
10.01 -0.700026
10.02 -0.728862
10.03 -0.752116
10.04 -0.769542
10.05 -0.781017
10.06 -0.786533
10.07 -0.7862
10.08 -0.779736
10.09 -0.767958
10.1 -0.751354
10.11 -0.73041
10.12 -0.705669
10.13 -0.677709
10.14 -0.647132
10.15 -0.614485
10.16 -0.580423
10.17 -0.545629
10.18 -0.510628
10.19 -0.475892
10.2 -0.441832
10.21 -0.408788
10.22 -0.377024
10.23 -0.346887
10.24 -0.318336
10.25 -0.291375
10.26 -0.265943
10.27 -0.241911
10.28 -0.219096
10.29 -0.197266
10.3 -0.176176
10.31 -0.155492
10.32 -0.134877
10.33 -0.114036
10.34 -0.0926957
10.35 -0.0706135
10.36 -0.0475911
10.37 -0.0234791
10.38 0.00191751
10.39 0.0284783
10.4 0.0561185
10.41 0.0846748
10.42 0.113905
10.43 0.14349
10.44 0.17304
10.45 0.202034
10.46 0.229891
10.47 0.256065
10.48 0.279955
10.49 0.300942
10.5 0.318405
10.51 0.331732
10.52 0.340272
10.53 0.34301
10.54 0.339924
10.55 0.330621
10.56 0.314794
10.57 0.292228
10.58 0.262817
10.59 0.226561
10.6 0.183122
10.61 0.13301
10.62 0.0768397
10.63 0.0150973
10.64 -0.0516281
10.65 -0.122652
10.66 -0.197207
10.67 -0.274489
10.68 -0.353601
10.69 -0.433381
10.7 -0.512861
10.71 -0.59107
10.72 -0.667049
10.73 -0.739871
10.74 -0.808655
10.75 -0.872141
10.76 -0.929765
10.77 -0.981031
10.78 -1.02541
10.79 -1.06249
10.8 -1.09196
10.81 -1.11364
10.82 -1.12723
10.83 -1.13243
10.84 -1.13004
10.85 -1.12035
10.86 -1.10375
10.87 -1.08072
10.88 -1.0518
10.89 -1.01761
10.9 -0.978448
10.91 -0.935385
10.92 -0.889206
10.93 -0.840601
10.94 -0.790243
10.95 -0.738771
10.96 -0.686781
10.97 -0.634832
10.98 -0.583469
10.99 -0.533069
11 -0.483939
11.01 -0.436306
11.02 -0.390316
11.03 -0.346036
11.04 -0.303461
11.05 -0.262656
11.06 -0.223322
11.07 -0.185241
11.08 -0.14817
11.09 -0.11184
11.1 -0.075967
11.11 -0.0402596
11.12 -0.00441802
11.13 0.0318569
11.14 0.0687774
11.15 0.106522
11.16 0.145217
11.17 0.184931
11.18 0.225669
11.19 0.267369
11.2 0.309965
11.21 0.353144
11.22 0.396626
11.23 0.440071
11.24 0.483087
11.25 0.525238
11.26 0.566051
11.27 0.6049
11.28 0.641212
11.29 0.674574
11.3 0.704493
11.31 0.7305
11.32 0.752168
11.33 0.769115
11.34 0.780987
11.35 0.787019
11.36 0.787558
11.37 0.782527
11.38 0.771933
11.39 0.755867
11.4 0.734505
11.41 0.708103
11.42 0.676723
11.43 0.640931
11.44 0.601403
11.45 0.558666
11.46 0.513285
11.47 0.465853
11.48 0.416972
11.49 0.367244
11.5 0.317307
11.51 0.267784
11.52 0.219195
11.53 0.172004
11.54 0.126617
11.55 0.0833736
11.56 0.0425375
11.57 0.00448932
11.58 -0.0307647
11.59 -0.0633086
11.6 -0.0932162
11.61 -0.120635
11.62 -0.145781
11.63 -0.168929
11.64 -0.190375
11.65 -0.210457
11.66 -0.229709
11.67 -0.248544
11.68 -0.267377
11.69 -0.286608
11.7 -0.306617
11.71 -0.327745
11.72 -0.350421
11.73 -0.374824
11.74 -0.401077
11.75 -0.429265
11.76 -0.459403
11.77 -0.491427
11.78 -0.525197
11.79 -0.560539
11.8 -0.597179
11.81 -0.634646
11.82 -0.672527
11.83 -0.710368
11.84 -0.747685
11.85 -0.783975
11.86 -0.818729
11.87 -0.851226
11.88 -0.88109
11.89 -0.907925
11.9 -0.931353
11.91 -0.951054
11.92 -0.966782
11.93 -0.97837
11.94 -0.985565
11.95 -0.988282
11.96 -0.986921
11.97 -0.981691
11.98 -0.972891
11.99 -0.960899
12 -0.946162
12.01 -0.929192
12.02 -0.910444
12.03 -0.890725
12.04 -0.870665
12.05 -0.850886
12.06 -0.831988
12.07 -0.814544
12.08 -0.799075
12.09 -0.786174
12.1 -0.776284
12.11 -0.769523
12.12 -0.766045
12.13 -0.765891
12.14 -0.768984
12.15 -0.775121
12.16 -0.78398
12.17 -0.795299
12.18 -0.80821
12.19 -0.822023
12.2 -0.835956
12.21 -0.849151
12.22 -0.860688
12.23 -0.869604
12.24 -0.87465
12.25 -0.874734
12.26 -0.869082
12.27 -0.856783
12.28 -0.836996
12.29 -0.808971
12.3 -0.772064
12.31 -0.725677
12.32 -0.668541
12.33 -0.601399
12.34 -0.524238
12.35 -0.437215
12.36 -0.340661
12.37 -0.235083
12.38 -0.121151
12.39 0.000727984
12.4 0.129234
12.41 0.262921
12.42 0.400531
12.43 0.540716
12.44 0.682057
12.45 0.823094
12.46 0.962291
12.47 1.09777
12.48 1.2283
12.49 1.35251
12.5 1.46915
12.51 1.57705
12.52 1.67521
12.53 1.76277
12.54 1.83814
12.55 1.90128
12.56 1.95226
12.57 1.99101
12.58 2.01765
12.59 2.03249
12.6 2.03602
12.61 2.02866
12.62 2.01083
12.63 1.98437
12.64 1.95041
12.65 1.91014
12.66 1.86486
12.67 1.81588
12.68 1.76454
12.69 1.71219
12.7 1.66031
12.71 1.61013
12.72 1.56276
12.73 1.51919
12.74 1.48029
12.75 1.44677
12.76 1.41939
12.77 1.39882
12.78 1.38477
12.79 1.37722
12.8 1.37597
12.81 1.38067
12.82 1.39078
12.83 1.40563
12.84 1.42471
12.85 1.44668
12.86 1.47046
12.87 1.49499
12.88 1.51912
12.89 1.54174
12.9 1.56171
12.91 1.57776
12.92 1.58861
12.93 1.59361
12.94 1.59193
12.95 1.58288
12.96 1.5659
12.97 1.54059
12.98 1.50669
12.99 1.46325
13 1.41118
13.01 1.35081
13.02 1.28254
13.03 1.20694
13.04 1.12468
13.05 1.03658
13.06 0.943325
13.07 0.846017
13.08 0.745964
13.09 0.644235
13.1 0.541908
13.11 0.440048
13.12 0.339684
13.13 0.241797
13.14 0.147719
13.15 0.0579635
13.16 -0.0267917
13.17 -0.105986
13.18 -0.179184
13.19 -0.246085
13.2 -0.306521
13.21 -0.360082
13.22 -0.406977
13.23 -0.447764
13.24 -0.482807
13.25 -0.512573
13.26 -0.537616
13.27 -0.558561
13.28 -0.576059
13.29 -0.590683
13.3 -0.603484
13.31 -0.615197
13.32 -0.626534
13.33 -0.638167
13.34 -0.650718
13.35 -0.664738
13.36 -0.680854
13.37 -0.699426
13.38 -0.720632
13.39 -0.744624
13.4 -0.771449
13.41 -0.801046
13.42 -0.83325
13.43 -0.867839
13.44 -0.904545
13.45 -0.942716
13.46 -0.981837
13.47 -1.02134
13.48 -1.06061
13.49 -1.09901
13.5 -1.13592
13.51 -1.17048
13.52 -1.20211
13.53 -1.23031
13.54 -1.25458
13.55 -1.27445
13.56 -1.28956
13.57 -1.29962
13.58 -1.30426
13.59 -1.30309
13.6 -1.29652
13.61 -1.28466
13.62 -1.26768
13.63 -1.24583
13.64 -1.21947
13.65 -1.18899
13.66 -1.15461
13.67 -1.1171
13.68 -1.07712
13.69 -1.03521
13.7 -0.991959
