# xPDFsuite Configuration #
[PDF]
wavelength = 0.1
dataformat = Qnm
inputfile = tio2-ito-glass.chi
backgroundfile = glass.chi
mode = xray
bgscale = 1.01254862465
composition = TiO2
outputtype = gr
qmaxinst = 20.0
qmin = 0.7
qmax = 16.0
rmax = 100.0
rmin = 0.0
rstep = 0.01
rpoly = 1.0

#### start data
#S 1
#L r($\AA$)  G($\AA^{-2}$)
0 0
0.01 -0.0084067
0.02 -0.0165427
0.03 -0.0241687
0.04 -0.0310599
0.05 -0.0370121
0.06 -0.0418472
0.07 -0.0454181
0.08 -0.0475304
0.09 -0.0481184
0.1 -0.0472282
0.11 -0.0448801
0.12 -0.0411359
0.13 -0.0360975
0.14 -0.0299043
0.15 -0.0227233
0.16 -0.0147139
0.17 -0.00620039
0.18 0.00256844
0.19 0.0113344
0.2 0.0198368
0.21 0.0278193
0.22 0.0350371
0.23 0.0411854
0.24 0.0460667
0.25 0.0495606
0.26 0.0515427
0.27 0.0519299
0.28 0.0506832
0.29 0.0478092
0.3 0.0433364
0.31 0.0372747
0.32 0.0299171
0.33 0.0214575
0.34 0.0121257
0.35 0.00218115
0.36 -0.00809255
0.37 -0.0183952
0.38 -0.028373
0.39 -0.0376911
0.4 -0.0460595
0.41 -0.0531954
0.42 -0.0588415
0.43 -0.0627728
0.44 -0.0648033
0.45 -0.064738
0.46 -0.0623633
0.47 -0.0578215
0.48 -0.0511445
0.49 -0.0424212
0.5 -0.0317956
0.51 -0.0194655
0.52 -0.00567838
0.53 0.00934146
0.54 0.0251522
0.55 0.0413585
0.56 0.0575705
0.57 0.0733869
0.58 0.0884046
0.59 0.102228
0.6 0.114414
0.61 0.124499
0.62 0.132299
0.63 0.137559
0.64 0.140081
0.65 0.139728
0.66 0.136428
0.67 0.130182
0.68 0.120813
0.69 0.108708
0.7 0.0941444
0.71 0.0774192
0.72 0.0588924
0.73 0.038978
0.74 0.0181363
0.75 -0.00313057
0.76 -0.0242247
0.77 -0.0445845
0.78 -0.0636718
0.79 -0.080962
0.8 -0.0959563
0.81 -0.108194
0.82 -0.117265
0.83 -0.12244
0.84 -0.123755
0.85 -0.121053
0.86 -0.114243
0.87 -0.103322
0.88 -0.0883867
0.89 -0.069625
0.9 -0.0471612
0.91 -0.0214206
0.92 0.00692371
0.93 0.0373161
0.94 0.069135
0.95 0.101704
0.96 0.134305
0.97 0.166189
0.98 0.196362
0.99 0.224157
1 0.248839
1.01 0.26971
1.02 0.286121
1.03 0.29749
1.04 0.303314
1.05 0.302804
1.06 0.295694
1.07 0.282083
1.08 0.26191
1.09 0.235226
1.1 0.202204
1.11 0.163134
1.12 0.118365
1.13 0.0680392
1.14 0.0133198
1.15 -0.0450759
1.16 -0.106358
1.17 -0.169679
1.18 -0.234148
1.19 -0.298848
1.2 -0.362742
1.21 -0.424819
1.22 -0.484226
1.23 -0.540126
1.24 -0.591745
1.25 -0.638385
1.26 -0.679436
1.27 -0.714269
1.28 -0.742012
1.29 -0.762952
1.3 -0.776964
1.31 -0.784048
1.32 -0.784326
1.33 -0.778042
1.34 -0.765553
1.35 -0.746932
1.36 -0.723083
1.37 -0.694842
1.38 -0.662938
1.39 -0.628152
1.4 -0.591299
1.41 -0.55321
1.42 -0.51473
1.43 -0.476788
1.44 -0.440171
1.45 -0.405586
1.46 -0.37367
1.47 -0.344976
1.48 -0.319959
1.49 -0.298967
1.5 -0.282605
1.51 -0.27071
1.52 -0.263153
1.53 -0.259771
1.54 -0.260283
1.55 -0.264294
1.56 -0.271303
1.57 -0.280769
1.58 -0.291967
1.59 -0.303966
1.6 -0.31594
1.61 -0.327029
1.62 -0.336357
1.63 -0.343043
1.64 -0.346225
1.65 -0.344603
1.66 -0.337682
1.67 -0.324833
1.68 -0.305457
1.69 -0.279057
1.7 -0.245245
1.71 -0.203757
1.72 -0.15411
1.73 -0.0961837
1.74 -0.0306284
1.75 0.0422513
1.76 0.122017
1.77 0.208104
1.78 0.299823
1.79 0.396374
1.8 0.497155
1.81 0.600693
1.82 0.705891
1.83 0.811615
1.84 0.916693
1.85 1.01993
1.86 1.12014
1.87 1.21584
1.88 1.30572
1.89 1.38892
1.9 1.46442
1.91 1.53126
1.92 1.58859
1.93 1.63566
1.94 1.67179
1.95 1.69529
1.96 1.70693
1.97 1.70649
1.98 1.69386
1.99 1.66909
2 1.63235
2.01 1.58394
2.02 1.52363
2.03 1.45223
2.04 1.37091
2.05 1.28045
2.06 1.1817
2.07 1.07559
2.08 0.96312
2.09 0.845287
2.1 0.722963
2.11 0.597748
2.12 0.470772
2.13 0.343167
2.14 0.216052
2.15 0.0905226
2.16 -0.0323604
2.17 -0.151256
2.18 -0.265212
2.19 -0.373482
2.2 -0.475254
2.21 -0.569795
2.22 -0.656455
2.23 -0.734674
2.24 -0.803793
2.25 -0.862813
2.26 -0.912252
2.27 -0.951966
2.28 -0.981908
2.29 -1.00214
2.3 -1.0128
2.31 -1.01416
2.32 -1.00588
2.33 -0.988921
2.34 -0.964064
2.35 -0.931928
2.36 -0.893199
2.37 -0.848631
2.38 -0.799032
2.39 -0.745165
2.4 -0.687885
2.41 -0.628431
2.42 -0.567747
2.43 -0.506784
2.44 -0.446486
2.45 -0.38778
2.46 -0.331564
2.47 -0.279056
2.48 -0.230915
2.49 -0.1878
2.5 -0.150364
2.51 -0.119175
2.52 -0.0947059
2.53 -0.0773317
2.54 -0.0676011
2.55 -0.0659012
2.56 -0.0717341
2.57 -0.0849868
2.58 -0.105427
2.59 -0.132704
2.6 -0.166352
2.61 -0.205798
2.62 -0.250773
2.63 -0.299988
2.64 -0.352511
2.65 -0.407398
2.66 -0.46365
2.67 -0.520225
2.68 -0.576058
2.69 -0.629942
2.7 -0.680627
2.71 -0.727201
2.72 -0.768682
2.73 -0.804153
2.74 -0.832775
2.75 -0.853804
2.76 -0.866607
2.77 -0.869726
2.78 -0.863651
2.79 -0.848195
2.8 -0.823298
2.81 -0.78905
2.82 -0.745686
2.83 -0.693595
2.84 -0.632895
2.85 -0.564392
2.86 -0.489325
2.87 -0.408627
2.88 -0.32333
2.89 -0.234544
2.9 -0.143443
2.91 -0.0512475
2.92 0.0406508
2.93 0.130922
2.94 0.218345
2.95 0.301744
2.96 0.380003
2.97 0.45209
2.98 0.517068
2.99 0.573572
3 0.620996
3.01 0.659163
3.02 0.687704
3.03 0.706401
3.04 0.715191
3.05 0.714168
3.06 0.703446
3.07 0.682769
3.08 0.653568
3.09 0.616525
3.1 0.572429
3.11 0.522162
3.12 0.466676
3.13 0.406982
3.14 0.343974
3.15 0.278956
3.16 0.21308
3.17 0.147362
3.18 0.0827673
3.19 0.0201961
3.2 -0.0395355
3.21 -0.0956119
3.22 -0.147111
3.23 -0.193874
3.24 -0.235564
3.25 -0.271972
3.26 -0.303013
3.27 -0.32873
3.28 -0.349282
3.29 -0.364581
3.3 -0.375317
3.31 -0.382092
3.32 -0.385449
3.33 -0.385982
3.34 -0.384315
3.35 -0.381088
3.36 -0.376926
3.37 -0.372498
3.38 -0.36842
3.39 -0.365183
3.4 -0.363202
3.41 -0.362799
3.42 -0.364196
3.43 -0.367504
3.44 -0.372877
3.45 -0.380027
3.46 -0.388651
3.47 -0.398368
3.48 -0.408695
3.49 -0.419049
3.5 -0.428769
3.51 -0.437038
3.52 -0.442912
3.53 -0.445673
3.54 -0.444502
3.55 -0.438593
3.56 -0.427183
3.57 -0.409564
3.58 -0.385107
3.59 -0.352532
3.6 -0.312056
3.61 -0.263504
3.62 -0.206781
3.63 -0.141953
3.64 -0.0692482
3.65 0.0109349
3.66 0.0983262
3.67 0.192132
3.68 0.291033
3.69 0.393964
3.7 0.499732
3.71 0.607034
3.72 0.714482
3.73 0.820621
3.74 0.923504
3.75 1.02179
3.76 1.11399
3.77 1.19867
3.78 1.27449
3.79 1.34017
3.8 1.39459
3.81 1.43604
3.82 1.46373
3.83 1.47768
3.84 1.47756
3.85 1.46322
3.86 1.43474
3.87 1.39244
3.88 1.33674
3.89 1.26738
3.9 1.18664
3.91 1.09572
3.92 0.995973
3.93 0.888905
3.94 0.776137
3.95 0.659385
3.96 0.540406
3.97 0.4213
3.98 0.303952
3.99 0.190131
4 0.0815318
4.01 -0.0202478
4.02 -0.113739
4.03 -0.19745
4.04 -0.269343
4.05 -0.329409
4.06 -0.376971
4.07 -0.411582
4.08 -0.433026
4.09 -0.441321
4.1 -0.436722
4.11 -0.418851
4.12 -0.389032
4.13 -0.348613
4.14 -0.298724
4.15 -0.24065
4.16 -0.175807
4.17 -0.105717
4.18 -0.031931
4.19 0.0438185
4.2 0.119601
4.21 0.193787
4.22 0.264799
4.23 0.331144
4.24 0.39144
4.25 0.444438
4.26 0.488283
4.27 0.522475
4.28 0.54654
4.29 0.560009
4.3 0.56262
4.31 0.554322
4.32 0.535276
4.33 0.505526
4.34 0.465338
4.35 0.416249
4.36 0.359206
4.37 0.295296
4.38 0.225724
4.39 0.151789
4.4 0.0748547
4.41 -0.00368349
4.42 -0.0821438
4.43 -0.159105
4.44 -0.233213
4.45 -0.303187
4.46 -0.367838
4.47 -0.426092
4.48 -0.476668
4.49 -0.518502
4.5 -0.551482
4.51 -0.575187
4.52 -0.58937
4.53 -0.59396
4.54 -0.58906
4.55 -0.57494
4.56 -0.551219
4.57 -0.519356
4.58 -0.480156
4.59 -0.434472
4.6 -0.383251
4.61 -0.327512
4.62 -0.268329
4.63 -0.206748
4.64 -0.144032
4.65 -0.0813995
4.66 -0.0199115
4.67 0.039427
4.68 0.0956821
4.69 0.148007
4.7 0.195646
4.71 0.237358
4.72 0.273157
4.73 0.302678
4.74 0.325681
4.75 0.342052
4.76 0.351799
4.77 0.355045
4.78 0.351678
4.79 0.342157
4.8 0.327219
4.81 0.307376
4.82 0.283198
4.83 0.2553
4.84 0.224326
4.85 0.190918
4.86 0.155657
4.87 0.119405
4.88 0.0827768
4.89 0.0463459
4.9 0.0106391
4.91 -0.0238729
4.92 -0.0567813
4.93 -0.0875943
4.94 -0.116068
4.95 -0.14209
4.96 -0.165542
4.97 -0.186363
4.98 -0.204556
4.99 -0.220173
5 -0.233271
5.01 -0.243844
5.02 -0.252279
5.03 -0.258764
5.04 -0.263498
5.05 -0.266679
5.06 -0.268495
5.07 -0.269123
5.08 -0.268644
5.09 -0.267242
5.1 -0.265029
5.11 -0.262054
5.12 -0.25833
5.13 -0.253831
5.14 -0.248497
5.15 -0.242208
5.16 -0.234772
5.17 -0.226115
5.18 -0.216075
5.19 -0.204483
5.2 -0.191169
5.21 -0.175971
5.22 -0.158745
5.23 -0.139181
5.24 -0.11732
5.25 -0.0931693
5.26 -0.0667364
5.27 -0.0380796
5.28 -0.00731238
5.29 0.0253945
5.3 0.0598608
5.31 0.0958047
5.32 0.13275
5.33 0.170287
5.34 0.20796
5.35 0.245273
5.36 0.281696
5.37 0.316677
5.38 0.349412
5.39 0.379431
5.4 0.406202
5.41 0.429187
5.42 0.447878
5.43 0.461809
5.44 0.470566
5.45 0.473546
5.46 0.470327
5.47 0.461074
5.48 0.445684
5.49 0.424146
5.5 0.396536
5.51 0.363023
5.52 0.323865
5.53 0.278918
5.54 0.22917
5.55 0.175173
5.56 0.117519
5.57 0.0568614
5.58 -0.00609993
5.59 -0.070625
5.6 -0.135946
5.61 -0.201169
5.62 -0.265475
5.63 -0.328092
5.64 -0.388276
5.65 -0.445317
5.66 -0.498551
5.67 -0.547356
5.68 -0.590645
5.69 -0.628433
5.7 -0.660349
5.71 -0.686107
5.72 -0.705507
5.73 -0.718436
5.74 -0.724871
5.75 -0.724493
5.76 -0.717574
5.77 -0.704647
5.78 -0.686025
5.79 -0.662084
5.8 -0.633255
5.81 -0.600018
5.82 -0.562852
5.83 -0.522096
5.84 -0.478676
5.85 -0.433174
5.86 -0.386169
5.87 -0.338231
5.88 -0.289915
5.89 -0.24175
5.9 -0.194314
5.91 -0.148105
5.92 -0.103508
5.93 -0.0608958
5.94 -0.0205908
5.95 0.0171291
5.96 0.0520345
5.97 0.0838788
5.98 0.112308
5.99 0.137496
6 0.1594
6.01 0.178011
6.02 0.193352
6.03 0.205477
6.04 0.214462
6.05 0.220181
6.06 0.222913
6.07 0.222877
6.08 0.220216
6.09 0.215077
6.1 0.207618
6.11 0.197995
6.12 0.186317
6.13 0.172678
6.14 0.157394
6.15 0.140632
6.16 0.12256
6.17 0.103351
6.18 0.0831815
6.19 0.0622352
6.2 0.0406687
6.21 0.0187415
6.22 -0.00332492
6.23 -0.0253106
6.24 -0.0469854
6.25 -0.0681093
6.26 -0.0884331
6.27 -0.10765
6.28 -0.125421
6.29 -0.141555
6.3 -0.155786
6.31 -0.167851
6.32 -0.177498
6.33 -0.184487
6.34 -0.188595
6.35 -0.189317
6.36 -0.186725
6.37 -0.180727
6.38 -0.171234
6.39 -0.158202
6.4 -0.141635
6.41 -0.121588
6.42 -0.0980272
6.43 -0.0711031
6.44 -0.0412578
6.45 -0.00878893
6.46 0.0259493
6.47 0.0625484
6.48 0.100549
6.49 0.139447
6.5 0.178671
6.51 0.217549
6.52 0.255469
6.53 0.291802
6.54 0.325913
6.55 0.357171
6.56 0.384956
6.57 0.40842
6.58 0.426934
6.59 0.440205
6.6 0.447781
6.61 0.449272
6.62 0.444363
6.63 0.432813
6.64 0.414434
6.65 0.38851
6.66 0.355779
6.67 0.31639
6.68 0.270585
6.69 0.218701
6.7 0.161165
6.71 0.0984903
6.72 0.0310303
6.73 -0.0403641
6.74 -0.114753
6.75 -0.191337
6.76 -0.269277
6.77 -0.347704
6.78 -0.425731
6.79 -0.502435
6.8 -0.576662
6.81 -0.647687
6.82 -0.71469
6.83 -0.776896
6.84 -0.83359
6.85 -0.884127
6.86 -0.927936
6.87 -0.963997
6.88 -0.992143
6.89 -1.01236
6.9 -1.02449
6.91 -1.02847
6.92 -1.02434
6.93 -1.01224
6.94 -0.992264
6.95 -0.964347
6.96 -0.929585
6.97 -0.888512
6.98 -0.841735
6.99 -0.789923
7 -0.733798
7.01 -0.674124
7.02 -0.611546
7.03 -0.547116
7.04 -0.481726
7.05 -0.416189
7.06 -0.351302
7.07 -0.287828
7.08 -0.226495
7.09 -0.168084
7.1 -0.113437
7.11 -0.0628695
7.12 -0.0168418
7.13 0.024264
7.14 0.0601487
7.15 0.0905986
7.16 0.115487
7.17 0.134286
7.18 0.147452
7.19 0.155237
7.2 0.15787
7.21 0.155657
7.22 0.148971
7.23 0.138248
7.24 0.123864
7.25 0.10635
7.26 0.086525
7.27 0.0650029
7.28 0.0424169
7.29 0.0194095
7.3 -0.00337618
7.31 -0.0253058
7.32 -0.0455637
7.33 -0.063636
7.34 -0.0789916
7.35 -0.0911284
7.36 -0.0995951
7.37 -0.103997
7.38 -0.104003
7.39 -0.0991159
7.4 -0.0890717
7.41 -0.0740429
7.42 -0.0540034
7.43 -0.0290038
7.44 0.000829213
7.45 0.0352939
7.46 0.0741157
7.47 0.117326
7.48 0.164053
7.49 0.213804
7.5 0.266039
7.51 0.32017
7.52 0.375568
7.53 0.431572
7.54 0.487451
7.55 0.542404
7.56 0.595731
7.57 0.64673
7.58 0.69471
7.59 0.739008
7.6 0.778988
7.61 0.814022
7.62 0.843014
7.63 0.865992
7.64 0.882555
7.65 0.892375
7.66 0.895206
7.67 0.890882
7.68 0.879326
7.69 0.860093
7.7 0.833478
7.71 0.799997
7.72 0.759959
7.73 0.713754
7.74 0.66186
7.75 0.604829
7.76 0.543227
7.77 0.477542
7.78 0.408927
7.79 0.338179
7.8 0.26613
7.81 0.193633
7.82 0.121551
7.83 0.0507471
7.84 -0.0177139
7.85 -0.0829975
7.86 -0.144401
7.87 -0.201196
7.88 -0.252718
7.89 -0.29837
7.9 -0.337634
7.91 -0.369905
7.92 -0.394398
7.93 -0.411458
7.94 -0.420968
7.95 -0.422909
7.96 -0.417368
7.97 -0.404528
7.98 -0.384669
7.99 -0.357664
8 -0.324408
8.01 -0.285619
8.02 -0.241915
8.03 -0.193973
8.04 -0.142513
8.05 -0.0882881
8.06 -0.0320379
8.07 0.0254024
8.08 0.0831178
8.09 0.140349
8.1 0.196365
8.11 0.25048
8.12 0.302055
8.13 0.350514
8.14 0.394984
8.15 0.435266
8.16 0.471086
8.17 0.502195
8.18 0.528429
8.19 0.54971
8.2 0.566042
8.21 0.577319
8.22 0.583621
8.23 0.58551
8.24 0.583293
8.25 0.577333
8.26 0.56803
8.27 0.555819
8.28 0.541159
8.29 0.52437
8.3 0.506143
8.31 0.486949
8.32 0.467222
8.33 0.447365
8.34 0.427742
8.35 0.408671
8.36 0.390469
8.37 0.373374
8.38 0.357471
8.39 0.342833
8.4 0.32947
8.41 0.317334
8.42 0.30632
8.43 0.296272
8.44 0.287037
8.45 0.278266
8.46 0.269676
8.47 0.260962
8.48 0.251808
8.49 0.241894
8.5 0.230909
8.51 0.218458
8.52 0.204249
8.53 0.18812
8.54 0.169884
8.55 0.1494
8.56 0.126585
8.57 0.101409
8.58 0.0738864
8.59 0.0439312
8.6 0.0119381
8.61 -0.0218643
8.62 -0.0571925
8.63 -0.0937137
8.64 -0.131051
8.65 -0.168792
8.66 -0.206461
8.67 -0.243538
8.68 -0.279556
8.69 -0.314048
8.7 -0.346559
8.71 -0.376658
8.72 -0.403946
8.73 -0.428002
8.74 -0.448241
8.75 -0.464711
8.76 -0.477238
8.77 -0.485715
8.78 -0.490105
8.79 -0.490444
8.8 -0.486838
8.81 -0.4792
8.82 -0.467974
8.83 -0.453594
8.84 -0.43643
8.85 -0.416898
8.86 -0.395448
8.87 -0.372558
8.88 -0.348714
8.89 -0.324453
8.9 -0.300335
8.91 -0.276834
8.92 -0.254394
8.93 -0.23342
8.94 -0.214271
8.95 -0.197247
8.96 -0.182799
8.97 -0.170964
8.98 -0.161768
8.99 -0.155219
9 -0.15125
9.01 -0.149722
9.02 -0.150427
9.03 -0.153146
9.04 -0.157558
9.05 -0.163133
9.06 -0.169439
9.07 -0.176013
9.08 -0.182376
9.09 -0.188041
9.1 -0.192526
9.11 -0.195176
9.12 -0.195642
9.13 -0.193564
9.14 -0.188608
9.15 -0.180501
9.16 -0.169038
9.17 -0.154089
9.18 -0.135456
9.19 -0.113115
9.2 -0.0874281
9.21 -0.0586163
9.22 -0.0269809
9.23 0.00710143
9.24 0.0431848
9.25 0.0807615
9.26 0.119305
9.27 0.158063
9.28 0.196394
9.29 0.233646
9.3 0.269165
9.31 0.302307
9.32 0.332454
9.33 0.358812
9.34 0.380767
9.35 0.398064
9.36 0.410319
9.37 0.417232
9.38 0.418587
9.39 0.414264
9.4 0.404223
9.41 0.38799
9.42 0.366348
9.43 0.339586
9.44 0.308082
9.45 0.272298
9.46 0.232768
9.47 0.190094
9.48 0.144825
9.49 0.097791
9.5 0.0498358
9.51 0.00170333
9.52 -0.0458627
9.53 -0.0921335
9.54 -0.136408
9.55 -0.177988
9.56 -0.21593
9.57 -0.249969
9.58 -0.279653
9.59 -0.304612
9.6 -0.324563
9.61 -0.339318
9.62 -0.348781
9.63 -0.352602
9.64 -0.351064
9.65 -0.344576
9.66 -0.333433
9.67 -0.318007
9.68 -0.298742
9.69 -0.27614
9.7 -0.250713
9.71 -0.222979
9.72 -0.193793
9.73 -0.16379
9.74 -0.133603
9.75 -0.103851
9.76 -0.0751295
9.77 -0.0479998
9.78 -0.023174
9.79 -0.00105732
9.8 0.0180311
9.81 0.0337778
9.82 0.0459424
9.83 0.0543605
9.84 0.0589444
9.85 0.0595775
9.86 0.056151
9.87 0.0491155
9.88 0.0386868
9.89 0.0251386
9.9 0.00879501
9.91 -0.00997751
9.92 -0.0307789
9.93 -0.0532832
9.94 -0.0769003
9.95 -0.101154
9.96 -0.125608
9.97 -0.149841
9.98 -0.173455
9.99 -0.196082
10 -0.217335
10.01 -0.236842
10.02 -0.25447
10.03 -0.270042
10.04 -0.283433
10.05 -0.294568
10.06 -0.303425
10.07 -0.310029
10.08 -0.314258
10.09 -0.316416
10.1 -0.316685
10.11 -0.31525
10.12 -0.312312
10.13 -0.308092
10.14 -0.302816
10.15 -0.296683
10.16 -0.289934
10.17 -0.282821
10.18 -0.275526
10.19 -0.268208
10.2 -0.260996
10.21 -0.253986
10.22 -0.247238
10.23 -0.240804
10.24 -0.234634
10.25 -0.228668
10.26 -0.222811
10.27 -0.216939
10.28 -0.210899
10.29 -0.204513
10.3 -0.197547
10.31 -0.18976
10.32 -0.180968
10.33 -0.170953
10.34 -0.159509
10.35 -0.146438
10.36 -0.131565
10.37 -0.114727
10.38 -0.0955893
10.39 -0.0742704
10.4 -0.0507268
10.41 -0.0249544
10.42 0.0030092
10.43 0.0330843
10.44 0.0651493
10.45 0.0991411
10.46 0.134794
10.47 0.171782
10.48 0.209827
10.49 0.248626
10.5 0.28785
10.51 0.327157
10.52 0.366182
10.53 0.404472
10.54 0.4417
10.55 0.477512
10.56 0.511568
10.57 0.543547
10.58 0.573146
10.59 0.600091
10.6 0.623918
10.61 0.644492
10.62 0.661747
10.63 0.675546
10.64 0.685791
10.65 0.692416
10.66 0.69539
10.67 0.694638
10.68 0.689972
10.69 0.681767
10.7 0.670112
10.71 0.655119
10.72 0.636917
10.73 0.615647
10.74 0.591464
10.75 0.564325
10.76 0.534555
10.77 0.502395
10.78 0.468012
10.79 0.43157
10.8 0.39323
10.81 0.353149
10.82 0.311436
10.83 0.268194
10.84 0.223686
10.85 0.178059
10.86 0.131458
10.87 0.0840331
10.88 0.0359371
10.89 -0.0126689
10.9 -0.0616281
10.91 -0.110715
10.92 -0.159725
10.93 -0.208444
10.94 -0.256645
10.95 -0.304081
10.96 -0.350491
10.97 -0.395536
10.98 -0.438839
10.99 -0.480185
11 -0.519259
11.01 -0.555743
11.02 -0.589316
11.03 -0.619662
11.04 -0.646473
11.05 -0.669065
11.06 -0.687466
11.07 -0.701475
11.08 -0.710883
11.09 -0.715519
11.1 -0.715255
11.11 -0.710009
11.12 -0.699521
11.13 -0.683767
11.14 -0.663139
11.15 -0.637798
11.16 -0.60796
11.17 -0.573903
11.18 -0.535961
11.19 -0.494523
11.2 -0.449765
11.21 -0.402533
11.22 -0.353371
11.23 -0.302846
11.24 -0.251551
11.25 -0.200094
11.26 -0.14909
11.27 -0.0992468
11.28 -0.0512445
11.29 -0.00560072
11.3 0.0371402
11.31 0.0764738
11.32 0.111944
11.33 0.143149
11.34 0.169717
11.35 0.1909
11.36 0.206979
11.37 0.217846
11.38 0.22347
11.39 0.223896
11.4 0.219246
11.41 0.209714
11.42 0.195294
11.43 0.176467
11.44 0.15383
11.45 0.127838
11.46 0.09899
11.47 0.0678174
11.48 0.0348793
11.49 0.000742788
11.5 -0.0339878
11.51 -0.0686345
11.52 -0.102631
11.53 -0.135434
11.54 -0.166528
11.55 -0.195436
11.56 -0.221724
11.57 -0.244765
11.58 -0.26431
11.59 -0.280202
11.6 -0.292239
11.61 -0.300282
11.62 -0.304247
11.63 -0.304112
11.64 -0.299816
11.65 -0.291228
11.66 -0.278826
11.67 -0.2628
11.68 -0.243375
11.69 -0.220805
11.7 -0.195373
11.71 -0.167378
11.72 -0.136975
11.73 -0.104644
11.74 -0.0707584
11.75 -0.0356301
11.76 0.000439288
11.77 0.0371624
11.78 0.0742694
11.79 0.111507
11.8 0.148615
11.81 0.185388
11.82 0.221646
11.83 0.257231
11.84 0.292007
11.85 0.325853
11.86 0.358665
11.87 0.39024
11.88 0.42057
11.89 0.449594
11.9 0.477236
11.91 0.503418
11.92 0.528056
11.93 0.551058
11.94 0.57225
11.95 0.591458
11.96 0.60867
11.97 0.623749
11.98 0.636546
11.99 0.646902
12 0.654652
12.01 0.659627
12.02 0.661354
12.03 0.659911
12.04 0.655169
12.05 0.646985
12.06 0.635236
12.07 0.619825
12.08 0.600682
12.09 0.577592
12.1 0.550535
12.11 0.519787
12.12 0.485455
12.13 0.447697
12.14 0.406723
12.15 0.362794
12.16 0.316222
12.17 0.267174
12.18 0.216344
12.19 0.164198
12.2 0.111239
12.21 0.0580006
12.22 0.00504366
12.23 -0.0470545
12.24 -0.0975892
12.25 -0.145905
12.26 -0.191499
12.27 -0.233817
12.28 -0.272333
12.29 -0.306557
12.3 -0.336048
12.31 -0.360372
12.32 -0.378691
12.33 -0.391269
12.34 -0.397942
12.35 -0.398621
12.36 -0.393299
12.37 -0.382051
12.38 -0.365031
12.39 -0.342133
12.4 -0.313858
12.41 -0.280829
12.42 -0.24351
12.43 -0.202424
12.44 -0.158142
12.45 -0.111276
12.46 -0.0624463
12.47 -0.0123037
12.48 0.0383164
12.49 0.0887441
12.5 0.138324
12.51 0.186425
12.52 0.232449
12.53 0.275843
12.54 0.315838
12.55 0.352077
12.56 0.384301
12.57 0.412217
12.58 0.435604
12.59 0.45432
12.6 0.468294
12.61 0.477416
12.62 0.481523
12.63 0.481159
12.64 0.47655
12.65 0.467977
12.66 0.455769
12.67 0.440297
12.68 0.421964
12.69 0.401037
12.7 0.378149
12.71 0.353806
12.72 0.32845
12.73 0.30251
12.74 0.276393
12.75 0.250478
12.76 0.225136
12.77 0.200734
12.78 0.177474
12.79 0.155549
12.8 0.135103
12.81 0.116226
12.82 0.0989557
12.83 0.0832814
12.84 0.0692723
12.85 0.0566896
12.86 0.0453561
12.87 0.0350836
12.88 0.0256566
12.89 0.0168376
12.9 0.00837434
12.91 -1.37837e-06
12.92 -0.00859015
12.93 -0.0176502
12.94 -0.0274231
12.95 -0.038132
12.96 -0.0499761
12.97 -0.0631266
12.98 -0.0777229
12.99 -0.0940301
13 -0.111972
13.01 -0.131557
13.02 -0.152768
13.03 -0.175549
13.04 -0.199808
13.05 -0.225422
13.06 -0.252284
13.07 -0.280189
13.08 -0.308861
13.09 -0.338072
13.1 -0.367582
13.11 -0.397143
13.12 -0.426503
13.13 -0.45541
13.14 -0.483524
13.15 -0.510666
13.16 -0.536616
13.17 -0.561175
13.18 -0.584162
13.19 -0.605416
13.2 -0.624801
13.21 -0.642078
13.22 -0.657172
13.23 -0.670113
13.24 -0.680857
13.25 -0.689381
13.26 -0.695677
13.27 -0.699754
13.28 -0.701609
13.29 -0.701091
13.3 -0.698448
13.31 -0.693721
