# xPDFsuite Configuration #
[PDF]
wavelength = 0.18
dataformat = QA
inputfile = Ba0.7K0.3(Zn0.85Mn0.15)2As2_300K-00318_qspace.chi
backgroundfile = kapton_bkgd_100K-00176_qspace.chi
mode = xray
bgscale = 2.27538201184
composition = Ni
outputtype = gr
qmaxinst = 25.0
qmin = 0.1
qmax = 25.0
rmax = 100.0
rmin = 0.0
rstep = 0.01
rpoly = 0.9

#### start data
#S 1
#L r($\AA$)  G($\AA^{-2}$)
0 0
0.01 -6.14514e-15
0.02 1.04667e-12
0.03 2.50755e-11
0.04 2.67286e-10
0.05 1.74448e-09
0.06 8.18042e-09
0.07 3.02532e-08
0.08 9.35533e-08
0.09 2.51493e-07
0.1 6.03813e-07
0.11 1.32015e-06
0.12 2.66636e-06
0.13 5.02893e-06
0.14 8.93019e-06
0.15 1.50243e-05
0.16 2.40616e-05
0.17 3.68067e-05
0.18 5.38972e-05
0.19 7.5627e-05
0.2 0.000101647
0.21 0.000130577
0.22 0.000159528
0.23 0.000183559
0.24 0.000194366
0.25 0.000180595
0.26 0.000127209
0.27 1.4699e-05
0.28 -0.000181056
0.29 -0.000488788
0.3 -0.0009415
0.31 -0.0015757
0.32 -0.00243019
0.33 -0.00354429
0.34 -0.00495556
0.35 -0.006697
0.36 -0.00879381
0.37 -0.0112597
0.38 -0.014093
0.39 -0.0172728
0.4 -0.0207551
0.41 -0.0244694
0.42 -0.028316
0.43 -0.0321639
0.44 -0.0358505
0.45 -0.0391822
0.46 -0.0419364
0.47 -0.0438429
0.48 -0.0446221
0.49 -0.0440119
0.5 -0.0417342
0.51 -0.037521
0.52 -0.0311269
0.53 -0.0223413
0.54 -0.0110012
0.55 0.00299643
0.56 0.0196837
0.57 0.039012
0.58 0.0608449
0.59 0.0849534
0.6 0.111015
0.61 0.138615
0.62 0.167253
0.63 0.196356
0.64 0.225286
0.65 0.253361
0.66 0.279874
0.67 0.304116
0.68 0.325399
0.69 0.343079
0.7 0.356529
0.71 0.365171
0.72 0.368767
0.73 0.36709
0.74 0.360055
0.75 0.347727
0.76 0.330317
0.77 0.308183
0.78 0.281818
0.79 0.251832
0.8 0.218935
0.81 0.18391
0.82 0.147586
0.83 0.11081
0.84 0.0744123
0.85 0.0391818
0.86 0.00583434
0.87 -0.0250106
0.88 -0.052851
0.89 -0.0773179
0.9 -0.0981853
0.91 -0.115373
0.92 -0.128946
0.93 -0.139094
0.94 -0.146047
0.95 -0.150357
0.96 -0.152527
0.97 -0.153103
0.98 -0.15265
0.99 -0.151723
1 -0.150838
1.01 -0.150454
1.02 -0.150948
1.03 -0.152601
1.04 -0.155588
1.05 -0.159977
1.06 -0.165728
1.07 -0.172703
1.08 -0.180677
1.09 -0.189356
1.1 -0.198401
1.11 -0.207445
1.12 -0.216124
1.13 -0.224094
1.14 -0.231057
1.15 -0.236776
1.16 -0.241095
1.17 -0.243898
1.18 -0.245254
1.19 -0.245298
1.2 -0.244243
1.21 -0.242372
1.22 -0.240024
1.23 -0.237578
1.24 -0.235426
1.25 -0.233956
1.26 -0.233522
1.27 -0.234433
1.28 -0.236927
1.29 -0.241159
1.3 -0.247195
1.31 -0.255
1.32 -0.264447
1.33 -0.275314
1.34 -0.287304
1.35 -0.300051
1.36 -0.313146
1.37 -0.326153
1.38 -0.338634
1.39 -0.350171
1.4 -0.360346
1.41 -0.36884
1.42 -0.37544
1.43 -0.380001
1.44 -0.382471
1.45 -0.382893
1.46 -0.381403
1.47 -0.378218
1.48 -0.373623
1.49 -0.367959
1.5 -0.361601
1.51 -0.35494
1.52 -0.348362
1.53 -0.342227
1.54 -0.336858
1.55 -0.33252
1.56 -0.32941
1.57 -0.327656
1.58 -0.327308
1.59 -0.32834
1.6 -0.330661
1.61 -0.334121
1.62 -0.33852
1.63 -0.343636
1.64 -0.349214
1.65 -0.354988
1.66 -0.360726
1.67 -0.366225
1.68 -0.371319
1.69 -0.375888
1.7 -0.379862
1.71 -0.383221
1.72 -0.385991
1.73 -0.388241
1.74 -0.390071
1.75 -0.391607
1.76 -0.392984
1.77 -0.394339
1.78 -0.395797
1.79 -0.397465
1.8 -0.399422
1.81 -0.401713
1.82 -0.404352
1.83 -0.407316
1.84 -0.410553
1.85 -0.413986
1.86 -0.417522
1.87 -0.421056
1.88 -0.424487
1.89 -0.427732
1.9 -0.43073
1.91 -0.43345
1.92 -0.435893
1.93 -0.4381
1.94 -0.440143
1.95 -0.442127
1.96 -0.444183
1.97 -0.446456
1.98 -0.449097
1.99 -0.45225
2 -0.45604
2.01 -0.460565
2.02 -0.465881
2.03 -0.471999
2.04 -0.47888
2.05 -0.486432
2.06 -0.494513
2.07 -0.502938
2.08 -0.511489
2.09 -0.519924
2.1 -0.527972
2.11 -0.535395
2.12 -0.541978
2.13 -0.547541
2.14 -0.551954
2.15 -0.555145
2.16 -0.5571
2.17 -0.557866
2.18 -0.557541
2.19 -0.556266
2.2 -0.55421
2.21 -0.551547
2.22 -0.548434
2.23 -0.54499
2.24 -0.54127
2.25 -0.537244
2.26 -0.532775
2.27 -0.527607
2.28 -0.521355
2.29 -0.513508
2.3 -0.503428
2.31 -0.490377
2.32 -0.47353
2.33 -0.451872
2.34 -0.424529
2.35 -0.390726
2.36 -0.349706
2.37 -0.300851
2.38 -0.243723
2.39 -0.178115
2.4 -0.10408
2.41 -0.0219626
2.42 0.0675857
2.43 0.1636
2.44 0.264811
2.45 0.369668
2.46 0.476372
2.47 0.582925
2.48 0.687189
2.49 0.78695
2.5 0.879995
2.51 0.964184
2.52 1.03753
2.53 1.09828
2.54 1.14496
2.55 1.17645
2.56 1.19177
2.57 1.19052
2.58 1.17325
2.59 1.1406
2.6 1.09362
2.61 1.03372
2.62 0.962664
2.63 0.882467
2.64 0.795336
2.65 0.70359
2.66 0.609578
2.67 0.515593
2.68 0.4238
2.69 0.336159
2.7 0.254367
2.71 0.179808
2.72 0.113518
2.73 0.0561691
2.74 0.00805968
2.75 -0.0308692
2.76 -0.06101
2.77 -0.0830505
2.78 -0.0979245
2.79 -0.106723
2.8 -0.110634
2.81 -0.111173
2.82 -0.109653
2.83 -0.107327
2.84 -0.105332
2.85 -0.104655
2.86 -0.106094
2.87 -0.110244
2.88 -0.117487
2.89 -0.127992
2.9 -0.141733
2.91 -0.158507
2.92 -0.177961
2.93 -0.199632
2.94 -0.222979
2.95 -0.247422
2.96 -0.272374
2.97 -0.297279
2.98 -0.321634
2.99 -0.345011
3 -0.367068
3.01 -0.387557
3.02 -0.406321
3.03 -0.423216
3.04 -0.438299
3.05 -0.451615
3.06 -0.463226
3.07 -0.473192
3.08 -0.481551
3.09 -0.488294
3.1 -0.493354
3.11 -0.496592
3.12 -0.497791
3.13 -0.496662
3.14 -0.492849
3.15 -0.485941
3.16 -0.475495
3.17 -0.461057
3.18 -0.442187
3.19 -0.418493
3.2 -0.389649
3.21 -0.355427
3.22 -0.31572
3.23 -0.270554
3.24 -0.220107
3.25 -0.16471
3.26 -0.10474
3.27 -0.0409411
3.28 0.0258606
3.29 0.0947814
3.3 0.164854
3.31 0.235058
3.32 0.304346
3.33 0.371681
3.34 0.436061
3.35 0.496549
3.36 0.552297
3.37 0.602566
3.38 0.646743
3.39 0.684346
3.4 0.715034
3.41 0.738601
3.42 0.754972
3.43 0.764194
3.44 0.766422
3.45 0.761906
3.46 0.750969
3.47 0.734
3.48 0.711428
3.49 0.683631
3.5 0.651108
3.51 0.614461
3.52 0.574187
3.53 0.530788
3.54 0.484762
3.55 0.436612
3.56 0.386841
3.57 0.335961
3.58 0.284492
3.59 0.232965
3.6 0.181921
3.61 0.131909
3.62 0.083483
3.63 0.0371952
3.64 -0.00641414
3.65 -0.0468264
3.66 -0.0835568
3.67 -0.116168
3.68 -0.144281
3.69 -0.167591
3.7 -0.185875
3.71 -0.198997
3.72 -0.206872
3.73 -0.209455
3.74 -0.207065
3.75 -0.199944
3.76 -0.18841
3.77 -0.172836
3.78 -0.153638
3.79 -0.131251
3.8 -0.10611
3.81 -0.0786317
3.82 -0.0491924
3.83 -0.0181143
3.84 0.0143486
3.85 0.0480193
3.86 0.0828015
3.87 0.118679
3.88 0.155708
3.89 0.19401
3.9 0.233749
3.91 0.275121
3.92 0.318324
3.93 0.363542
3.94 0.410915
3.95 0.460521
3.96 0.512437
3.97 0.566454
3.98 0.622338
3.99 0.679735
4 0.73817
4.01 0.797051
4.02 0.855683
4.03 0.913284
4.04 0.969004
4.05 1.02195
4.06 1.07122
4.07 1.11591
4.08 1.15518
4.09 1.18824
4.1 1.21439
4.11 1.23305
4.12 1.24377
4.13 1.24624
4.14 1.24028
4.15 1.22587
4.16 1.2031
4.17 1.17224
4.18 1.13362
4.19 1.08749
4.2 1.03457
4.21 0.975509
4.22 0.910943
4.23 0.841517
4.24 0.767876
4.25 0.690657
4.26 0.610472
4.27 0.527905
4.28 0.443509
4.29 0.357802
4.3 0.271274
4.31 0.184392
4.32 0.0976016
4.33 0.0113399
4.34 -0.0739617
4.35 -0.15787
4.36 -0.239945
4.37 -0.319739
4.38 -0.396798
4.39 -0.47066
4.4 -0.540867
4.41 -0.606968
4.42 -0.668426
4.43 -0.724831
4.44 -0.77591
4.45 -0.821365
4.46 -0.860957
4.47 -0.894525
4.48 -0.921984
4.49 -0.943331
4.5 -0.958643
4.51 -0.968076
4.52 -0.971851
4.53 -0.970249
4.54 -0.963595
4.55 -0.952243
4.56 -0.936557
4.57 -0.916902
4.58 -0.89362
4.59 -0.867021
4.6 -0.83737
4.61 -0.804881
4.62 -0.769713
4.63 -0.731969
4.64 -0.691702
4.65 -0.648896
4.66 -0.603492
4.67 -0.555534
4.68 -0.505005
4.69 -0.451916
4.7 -0.396326
4.71 -0.338363
4.72 -0.278236
4.73 -0.216247
4.74 -0.152805
4.75 -0.0884226
4.76 -0.023717
4.77 0.0405975
4.78 0.103723
4.79 0.164797
4.8 0.222911
4.81 0.277141
4.82 0.326571
4.83 0.370324
4.84 0.40759
4.85 0.437653
4.86 0.459916
4.87 0.473921
4.88 0.479344
4.89 0.475742
4.9 0.463485
4.91 0.44279
4.92 0.414032
4.93 0.377732
4.94 0.334535
4.95 0.285192
4.96 0.230535
4.97 0.171445
4.98 0.10883
4.99 0.043599
5 -0.0233678
5.01 -0.0912358
5.02 -0.159237
5.03 -0.226683
5.04 -0.292976
5.05 -0.357614
5.06 -0.420192
5.07 -0.480396
5.08 -0.538
5.09 -0.592855
5.1 -0.644876
5.11 -0.694027
5.12 -0.740219
5.13 -0.783552
5.14 -0.82408
5.15 -0.861834
5.16 -0.896832
5.17 -0.929073
5.18 -0.958533
5.19 -0.985161
5.2 -1.00888
5.21 -1.0296
5.22 -1.04719
5.23 -1.06153
5.24 -1.07248
5.25 -1.0799
5.26 -1.08367
5.27 -1.08365
5.28 -1.07975
5.29 -1.07189
5.3 -1.05999
5.31 -1.04402
5.32 -1.02396
5.33 -0.999809
5.34 -0.971602
5.35 -0.939287
5.36 -0.902955
5.37 -0.862747
5.38 -0.818749
5.39 -0.771058
5.4 -0.719781
5.41 -0.665038
5.42 -0.606958
5.43 -0.545688
5.44 -0.48139
5.45 -0.414246
5.46 -0.344464
5.47 -0.272278
5.48 -0.19795
5.49 -0.121776
5.5 -0.0440826
5.51 0.0347683
5.52 0.114385
5.53 0.194345
5.54 0.2742
5.55 0.353483
5.56 0.431705
5.57 0.508374
5.58 0.582954
5.59 0.654895
5.6 0.723766
5.61 0.789101
5.62 0.850454
5.63 0.907408
5.64 0.959575
5.65 1.0066
5.66 1.04817
5.67 1.08399
5.68 1.11383
5.69 1.13747
5.7 1.15474
5.71 1.16551
5.72 1.16968
5.73 1.16718
5.74 1.15798
5.75 1.14211
5.76 1.11961
5.77 1.09058
5.78 1.05514
5.79 1.0135
5.8 0.965874
5.81 0.912524
5.82 0.853638
5.83 0.789805
5.84 0.721467
5.85 0.64911
5.86 0.573268
5.87 0.49451
5.88 0.413435
5.89 0.330669
5.9 0.246845
5.91 0.162605
5.92 0.0785793
5.93 -0.0046158
5.94 -0.086393
5.95 -0.1662
5.96 -0.24353
5.97 -0.317922
5.98 -0.388972
5.99 -0.456329
6 -0.519699
6.01 -0.578841
6.02 -0.633565
6.03 -0.683723
6.04 -0.729207
6.05 -0.769774
6.06 -0.805513
6.07 -0.836411
6.08 -0.862446
6.09 -0.883599
6.1 -0.899853
6.11 -0.911195
6.12 -0.917613
6.13 -0.9191
6.14 -0.915656
6.15 -0.907298
6.16 -0.894067
6.17 -0.876032
6.18 -0.8533
6.19 -0.826026
6.2 -0.794415
6.21 -0.758734
6.22 -0.719307
6.23 -0.676523
6.24 -0.630832
6.25 -0.582739
6.26 -0.5328
6.27 -0.48161
6.28 -0.429793
6.29 -0.378027
6.3 -0.326958
6.31 -0.277202
6.32 -0.229346
6.33 -0.183923
6.34 -0.141409
6.35 -0.102202
6.36 -0.0666189
6.37 -0.034887
6.38 -0.00713995
6.39 0.016582
6.4 0.0363297
6.41 0.0522398
6.42 0.0645273
6.43 0.0734753
6.44 0.0794243
6.45 0.0827594
6.46 0.0838981
6.47 0.0832778
6.48 0.0813437
6.49 0.0785384
6.5 0.0752922
6.51 0.0720219
6.52 0.0691344
6.53 0.066982
6.54 0.0658846
6.55 0.0661294
6.56 0.0679708
6.57 0.0716317
6.58 0.0773054
6.59 0.0851562
6.6 0.0953218
6.61 0.107913
6.62 0.123014
6.63 0.140683
6.64 0.160947
6.65 0.183803
6.66 0.209212
6.67 0.237098
6.68 0.267345
6.69 0.299791
6.7 0.334229
6.71 0.370403
6.72 0.408013
6.73 0.446711
6.74 0.486112
6.75 0.525779
6.76 0.565237
6.77 0.604014
6.78 0.641632
6.79 0.677618
6.8 0.711514
6.81 0.74289
6.82 0.771357
6.83 0.796573
6.84 0.818256
6.85 0.836189
6.86 0.850221
6.87 0.860276
6.88 0.866348
6.89 0.868497
6.9 0.866849
6.91 0.861584
6.92 0.852929
6.93 0.841151
6.94 0.826542
6.95 0.809413
6.96 0.79008
6.97 0.768859
6.98 0.746005
6.99 0.721873
7 0.69673
7.01 0.670816
7.02 0.644348
7.03 0.617516
7.04 0.590491
7.05 0.563424
7.06 0.536452
7.07 0.5097
7.08 0.483289
7.09 0.457334
7.1 0.431952
7.11 0.407261
7.12 0.383377
7.13 0.360422
7.14 0.338512
7.15 0.317761
7.16 0.298274
7.17 0.280146
7.18 0.263453
7.19 0.248251
7.2 0.234574
7.21 0.222472
7.22 0.211897
7.23 0.202783
7.24 0.195056
7.25 0.188624
7.26 0.183376
7.27 0.179194
7.28 0.175955
7.29 0.173538
7.3 0.171834
7.31 0.170748
7.32 0.170204
7.33 0.170151
7.34 0.170563
7.35 0.171435
7.36 0.172785
7.37 0.174648
7.38 0.177067
7.39 0.180089
7.4 0.183751
7.41 0.188075
7.42 0.193056
7.43 0.198653
7.44 0.204792
7.45 0.211331
7.46 0.218069
7.47 0.224765
7.48 0.231127
7.49 0.236821
7.5 0.241474
7.51 0.244691
7.52 0.246066
7.53 0.245194
7.54 0.241689
7.55 0.235197
7.56 0.225412
7.57 0.212091
7.58 0.195059
7.59 0.174223
7.6 0.149571
7.61 0.121182
7.62 0.089215
7.63 0.0539086
7.64 0.0155719
7.65 -0.0254267
7.66 -0.0686731
7.67 -0.113733
7.68 -0.160151
7.69 -0.207409
7.7 -0.255054
7.71 -0.302663
7.72 -0.349841
7.73 -0.396236
7.74 -0.441539
7.75 -0.485483
7.76 -0.527844
7.77 -0.568432
7.78 -0.607084
7.79 -0.643658
7.8 -0.678021
7.81 -0.710041
7.82 -0.739577
7.83 -0.766475
7.84 -0.790559
7.85 -0.811633
7.86 -0.829479
7.87 -0.843863
7.88 -0.854539
7.89 -0.861262
7.9 -0.863796
7.91 -0.861751
7.92 -0.855125
7.93 -0.843804
7.94 -0.827741
7.95 -0.806967
7.96 -0.781597
7.97 -0.751835
7.98 -0.717978
7.99 -0.680411
8 -0.639597
8.01 -0.596073
8.02 -0.550432
8.03 -0.503306
8.04 -0.455349
8.05 -0.40722
8.06 -0.359559
8.07 -0.312973
8.08 -0.268018
8.09 -0.225187
8.1 -0.184898
8.11 -0.147489
8.12 -0.113219
8.13 -0.0822631
8.14 -0.0548314
8.15 -0.0308908
8.16 -0.0103927
8.17 0.006715
8.18 0.0205057
8.19 0.0310596
8.2 0.038451
8.21 0.0427373
8.22 0.0439515
8.23 0.0420979
8.24 0.0371524
8.25 0.0290661
8.26 0.017773
8.27 0.00320137
8.28 -0.0147128
8.29 -0.0360101
8.3 -0.0606913
8.31 -0.0887013
8.32 -0.119915
8.33 -0.154126
8.34 -0.191037
8.35 -0.230257
8.36 -0.271303
8.37 -0.313619
8.38 -0.356518
8.39 -0.399275
8.4 -0.441152
8.41 -0.481404
8.42 -0.519306
8.43 -0.554182
8.44 -0.585428
8.45 -0.612542
8.46 -0.635143
8.47 -0.652986
8.48 -0.66598
8.49 -0.674183
8.5 -0.677811
8.51 -0.67722
8.52 -0.672896
8.53 -0.665432
8.54 -0.655502
8.55 -0.643832
8.56 -0.631167
8.57 -0.61824
8.58 -0.605738
8.59 -0.594274
8.6 -0.584385
8.61 -0.576508
8.62 -0.570845
8.63 -0.567496
8.64 -0.566424
8.65 -0.567456
8.66 -0.570299
8.67 -0.574561
8.68 -0.57977
8.69 -0.585405
8.7 -0.590922
8.71 -0.595779
8.72 -0.599465
8.73 -0.601524
8.74 -0.601569
8.75 -0.599299
8.76 -0.594507
8.77 -0.58708
8.78 -0.576995
8.79 -0.564309
8.8 -0.549148
8.81 -0.531682
8.82 -0.512111
8.83 -0.490636
8.84 -0.46739
8.85 -0.442591
8.86 -0.416331
8.87 -0.388638
8.88 -0.359464
8.89 -0.32869
8.9 -0.296127
8.91 -0.261527
8.92 -0.224597
8.93 -0.185021
8.94 -0.14248
8.95 -0.0966734
8.96 -0.0473478
8.97 0.00568523
8.98 0.0625271
8.99 0.123177
9 0.187519
9.01 0.255322
9.02 0.326232
9.03 0.399788
9.04 0.475428
9.05 0.552511
9.06 0.630338
9.07 0.708153
9.08 0.78519
9.09 0.860741
9.1 0.934151
9.11 1.00484
9.12 1.07233
9.13 1.13625
9.14 1.19635
9.15 1.25248
9.16 1.30463
9.17 1.35289
9.18 1.39744
9.19 1.43851
9.2 1.47641
9.21 1.51144
9.22 1.5439
9.23 1.57408
9.24 1.60218
9.25 1.62836
9.26 1.65268
9.27 1.6751
9.28 1.6955
9.29 1.71363
9.3 1.72912
9.31 1.74157
9.32 1.7506
9.33 1.75572
9.34 1.75647
9.35 1.75239
9.36 1.74307
9.37 1.72819
9.38 1.70747
9.39 1.68076
9.4 1.64801
9.41 1.60927
9.42 1.5647
9.43 1.51455
9.44 1.45918
9.45 1.39899
9.46 1.33446
9.47 1.26607
9.48 1.19434
9.49 1.11976
9.5 1.04279
9.51 0.963879
9.52 0.883391
9.53 0.801636
9.54 0.718871
9.55 0.635329
9.56 0.55116
9.57 0.466482
9.58 0.38139
9.59 0.295978
9.6 0.210347
9.61 0.124627
9.62 0.0389906
9.63 -0.04634
9.64 -0.131083
9.65 -0.214894
9.66 -0.29737
9.67 -0.378053
9.68 -0.456443
9.69 -0.532013
9.7 -0.604226
9.71 -0.672553
9.72 -0.7365
9.73 -0.795624
9.74 -0.849555
9.75 -0.898012
9.76 -0.940793
9.77 -0.977661
9.78 -1.00888
9.79 -1.03464
9.8 -1.05523
9.81 -1.07104
9.82 -1.08255
9.83 -1.0903
9.84 -1.09485
9.85 -1.09682
9.86 -1.09679
9.87 -1.09534
9.88 -1.09298
9.89 -1.09017
9.9 -1.08729
9.91 -1.08464
9.92 -1.08242
9.93 -1.08075
9.94 -1.07967
9.95 -1.07913
9.96 -1.07902
9.97 -1.07918
9.98 -1.07943
9.99 -1.07955
10 -1.0793
10.01 -1.07847
10.02 -1.07687
10.03 -1.07432
10.04 -1.0707
10.05 -1.06588
10.06 -1.05978
10.07 -1.05233
10.08 -1.04347
10.09 -1.03314
10.1 -1.02127
10.11 -1.00778
10.12 -0.992552
10.13 -0.975438
10.14 -0.956255
10.15 -0.934782
10.16 -0.910765
10.17 -0.883926
10.18 -0.853969
10.19 -0.8206
10.2 -0.783537
10.21 -0.742534
10.22 -0.697394
10.23 -0.647879
10.24 -0.593997
10.25 -0.535875
10.26 -0.473688
10.27 -0.407725
10.28 -0.338388
10.29 -0.266188
10.3 -0.191738
10.31 -0.115733
10.32 -0.0389366
10.33 0.0378422
10.34 0.113772
10.35 0.188024
10.36 0.259796
10.37 0.328336
10.38 0.392963
10.39 0.453084
10.4 0.508209
10.41 0.557958
10.42 0.602067
10.43 0.640386
10.44 0.672875
10.45 0.699593
10.46 0.7206
10.47 0.73609
10.48 0.746473
10.49 0.752063
10.5 0.753195
10.51 0.750208
10.52 0.743432
10.53 0.733183
10.54 0.719756
10.55 0.70342
10.56 0.684424
10.57 0.662996
10.58 0.639358
10.59 0.613728
10.6 0.58633
10.61 0.557409
10.62 0.527236
10.63 0.496114
10.64 0.464385
10.65 0.43243
10.66 0.400667
10.67 0.369547
10.68 0.339539
10.69 0.31114
10.7 0.284899
10.71 0.261214
10.72 0.24049
10.73 0.223078
10.74 0.20925
10.75 0.199191
10.76 0.192989
10.77 0.190626
10.78 0.191981
10.79 0.196828
10.8 0.204848
10.81 0.21564
10.82 0.228738
10.83 0.243629
10.84 0.259773
10.85 0.27663
10.86 0.293676
10.87 0.310429
10.88 0.326461
10.89 0.341419
10.9 0.35503
10.91 0.36711
10.92 0.377561
10.93 0.386311
10.94 0.393485
10.95 0.39921
10.96 0.403656
10.97 0.407009
10.98 0.409461
10.99 0.411184
11 0.412318
11.01 0.412947
11.02 0.413096
11.03 0.41272
11.04 0.411701
11.05 0.409852
11.06 0.406924
11.07 0.402618
11.08 0.396601
11.09 0.388525
11.1 0.378047
11.11 0.364853
11.12 0.348673
11.13 0.329306
11.14 0.306633
11.15 0.280627
11.16 0.25128
11.17 0.21884
11.18 0.183636
11.19 0.146051
11.2 0.106544
11.21 0.0656351
11.22 0.0238844
11.23 -0.0181303
11.24 -0.0598355
11.25 -0.100684
11.26 -0.140174
11.27 -0.177867
11.28 -0.213401
11.29 -0.246496
11.3 -0.276964
11.31 -0.304701
11.32 -0.329684
11.33 -0.351963
11.34 -0.371645
11.35 -0.388879
11.36 -0.403836
11.37 -0.416697
11.38 -0.427633
11.39 -0.436758
11.4 -0.444183
11.41 -0.450007
11.42 -0.454245
11.43 -0.456869
11.44 -0.457811
11.45 -0.456975
11.46 -0.454249
11.47 -0.449526
11.48 -0.442712
11.49 -0.433753
11.5 -0.422644
11.51 -0.409447
11.52 -0.394298
11.53 -0.377419
11.54 -0.359112
11.55 -0.339763
11.56 -0.319827
11.57 -0.299819
11.58 -0.280292
11.59 -0.261818
11.6 -0.244965
11.61 -0.230269
11.62 -0.21824
11.63 -0.20936
11.64 -0.203841
11.65 -0.201861
11.66 -0.203471
11.67 -0.208594
11.68 -0.217026
11.69 -0.228442
11.7 -0.242416
11.71 -0.258434
11.72 -0.275925
11.73 -0.294279
11.74 -0.312883
11.75 -0.331145
11.76 -0.348522
11.77 -0.364544
11.78 -0.378834
11.79 -0.391123
11.8 -0.401258
11.81 -0.409205
11.82 -0.415046
11.83 -0.418968
11.84 -0.421245
11.85 -0.422222
11.86 -0.42227
11.87 -0.421847
11.88 -0.42135
11.89 -0.421142
11.9 -0.421523
11.91 -0.422716
11.92 -0.424851
11.93 -0.427956
11.94 -0.431957
11.95 -0.436677
11.96 -0.44185
11.97 -0.447133
11.98 -0.452127
11.99 -0.456396
12 -0.459495
12.01 -0.460994
12.02 -0.4605
12.03 -0.45768
12.04 -0.452278
12.05 -0.444129
12.06 -0.433171
12.07 -0.419438
12.08 -0.403066
12.09 -0.384216
12.1 -0.363256
12.11 -0.340569
12.12 -0.316548
12.13 -0.291594
12.14 -0.266093
12.15 -0.240394
12.16 -0.214787
12.17 -0.189488
12.18 -0.164627
12.19 -0.140238
12.2 -0.116264
12.21 -0.0925552
12.22 -0.0688821
12.23 -0.0449495
12.24 -0.020415
12.25 0.005089
12.26 0.0319326
12.27 0.0604643
12.28 0.0909879
12.29 0.123742
12.3 0.158883
12.31 0.196472
12.32 0.23651
12.33 0.278827
12.34 0.323111
12.35 0.368998
12.36 0.416043
12.37 0.463731
12.38 0.511504
12.39 0.558776
12.4 0.604958
12.41 0.649477
12.42 0.691796
12.43 0.731431
12.44 0.767964
12.45 0.80105
12.46 0.830423
12.47 0.855895
12.48 0.877354
12.49 0.894752
12.5 0.908097
12.51 0.917437
12.52 0.92285
12.53 0.924424
12.54 0.922246
12.55 0.91635
12.56 0.906728
12.57 0.893502
12.58 0.876663
12.59 0.856169
12.6 0.831958
12.61 0.803952
12.62 0.772073
12.63 0.736254
12.64 0.696454
12.65 0.652676
12.66 0.604978
12.67 0.553487
12.68 0.498409
12.69 0.440034
12.7 0.378739
12.71 0.314987
12.72 0.249318
12.73 0.182343
12.74 0.114726
12.75 0.0471692
12.76 -0.0196067
12.77 -0.084883
12.78 -0.147958
12.79 -0.208054
12.8 -0.264672
12.81 -0.31731
12.82 -0.365554
12.83 -0.409094
12.84 -0.44772
12.85 -0.481326
12.86 -0.509904
12.87 -0.533536
12.88 -0.552383
12.89 -0.566669
12.9 -0.576667
12.91 -0.582682
12.92 -0.585033
12.93 -0.584042
12.94 -0.580014
12.95 -0.57323
12.96 -0.56394
12.97 -0.552351
12.98 -0.538633
12.99 -0.522914
13 -0.505289
13.01 -0.485823
13.02 -0.464502
13.03 -0.441408
13.04 -0.416588
13.05 -0.39009
13.06 -0.361977
13.07 -0.332345
13.08 -0.301319
13.09 -0.269063
13.1 -0.235776
13.11 -0.201692
13.12 -0.167077
13.13 -0.132221
13.14 -0.0974301
13.15 -0.0630207
13.16 -0.0293061
13.17 0.00341039
13.18 0.0348451
13.19 0.0647417
13.2 0.0928773
13.21 0.119067
13.22 0.143167
13.23 0.165075
13.24 0.184728
13.25 0.202047
13.26 0.217058
13.27 0.229833
13.28 0.240432
13.29 0.248924
13.3 0.25539
13.31 0.259915
13.32 0.262581
13.33 0.263472
13.34 0.262667
13.35 0.260239
13.36 0.256266
13.37 0.250822
13.38 0.24399
13.39 0.23586
