/home/maxwell/Desktop/160820_experiments_XPD/xpdUser/tiff_base/kapton_bkgd_1mmOD
Q (Inverse Nanometres)
Intensity
       1478
 1.0732947E-01  1.7662569E+00
 3.2198840E-01  1.4892259E+00
 5.3664732E-01  5.2794600E-01
 7.5130624E-01 -5.3947163E-01
 9.6596521E-01 -4.4178203E-01
 1.1806241E+00  3.3874318E-01
 1.3952831E+00  9.4457060E-01
 1.6099420E+00  1.0663791E+00
 1.8246009E+00  1.3570282E+00
 2.0392599E+00  1.5312997E+00
 2.2539189E+00  1.6135265E+00
 2.4685776E+00  1.8974407E+00
 2.6832366E+00  2.8484218E+00
 2.8978956E+00  3.6396346E+00
 3.1125546E+00  6.9106793E+00
 3.3272135E+00  9.5935574E+00
 3.5418723E+00  1.4073065E+01
 3.7565312E+00  2.1234150E+01
 3.9711902E+00  2.7490341E+01
 4.1858492E+00  3.4470036E+01
 4.4005079E+00  4.2338406E+01
 4.6151671E+00  4.8509846E+01
 4.8298259E+00  5.5621723E+01
 5.0444851E+00  6.2869526E+01
 5.2591438E+00  6.9026466E+01
 5.4738026E+00  7.6112747E+01
 5.6884618E+00  8.2591248E+01
 5.9031205E+00  8.7722778E+01
 6.1177797E+00  9.3668793E+01
 6.3324385E+00  9.8283234E+01
 6.5470972E+00  1.0233846E+02
 6.7617564E+00  1.0602637E+02
 6.9764152E+00  1.0856042E+02
 7.1910744E+00  1.1096935E+02
 7.4057331E+00  1.1324105E+02
 7.6203918E+00  1.1501315E+02
 7.8350511E+00  1.1665018E+02
 8.0497103E+00  1.1799229E+02
 8.2643690E+00  1.1889880E+02
 8.4790277E+00  1.1972121E+02
 8.6936865E+00  1.2022971E+02
 8.9083452E+00  1.2067865E+02
 9.1230049E+00  1.2100615E+02
 9.3376637E+00  1.2133015E+02
 9.5523224E+00  1.2164030E+02
 9.7669811E+00  1.2190583E+02
 9.9816399E+00  1.2208794E+02
 1.0196300E+01  1.2221297E+02
 1.0410958E+01  1.2232915E+02
 1.0625617E+01  1.2241386E+02
 1.0840276E+01  1.2260476E+02
 1.1054935E+01  1.2270891E+02
 1.1269594E+01  1.2283377E+02
 1.1484253E+01  1.2303420E+02
 1.1698912E+01  1.2323336E+02
 1.1913570E+01  1.2329649E+02
 1.2128229E+01  1.2347019E+02
 1.2342889E+01  1.2364149E+02
 1.2557548E+01  1.2381757E+02
 1.2772206E+01  1.2409067E+02
 1.2986865E+01  1.2430157E+02
 1.3201524E+01  1.2443644E+02
 1.3416183E+01  1.2410196E+02
 1.3630842E+01  1.2313431E+02
 1.3845501E+01  1.2149471E+02
 1.4060160E+01  1.1921159E+02
 1.4274819E+01  1.1666395E+02
 1.4489478E+01  1.1415211E+02
 1.4704137E+01  1.1185905E+02
 1.4918796E+01  1.0962000E+02
 1.5133454E+01  1.0731790E+02
 1.5348114E+01  1.0502634E+02
 1.5562773E+01  1.0281511E+02
 1.5777431E+01  1.0063755E+02
 1.5992090E+01  9.8623100E+01
 1.6206749E+01  9.6865807E+01
 1.6421408E+01  9.5254463E+01
 1.6636066E+01  9.3779869E+01
 1.6850725E+01  9.2321884E+01
 1.7065386E+01  9.0921555E+01
 1.7280045E+01  8.9602051E+01
 1.7494703E+01  8.8369690E+01
 1.7709362E+01  8.7122467E+01
 1.7924021E+01  8.5897362E+01
 1.8138680E+01  8.4802284E+01
 1.8353338E+01  8.3845581E+01
 1.8567997E+01  8.2870338E+01
 1.8782656E+01  8.1664528E+01
 1.8997314E+01  8.0378090E+01
 1.9211975E+01  7.8830261E+01
 1.9426634E+01  7.7114571E+01
 1.9641293E+01  7.5353676E+01
 1.9855951E+01  7.3511238E+01
 2.0070610E+01  7.1698364E+01
 2.0285269E+01  6.9935005E+01
 2.0499928E+01  6.8220131E+01
 2.0714586E+01  6.6631775E+01
 2.0929245E+01  6.5114334E+01
 2.1143906E+01  6.3662773E+01
 2.1358564E+01  6.2320732E+01
 2.1573223E+01  6.0969147E+01
 2.1787882E+01  5.9681072E+01
 2.2002541E+01  5.8506962E+01
 2.2217199E+01  5.7287155E+01
 2.2431858E+01  5.6069294E+01
 2.2646517E+01  5.4932083E+01
 2.2861176E+01  5.3821545E+01
 2.3075834E+01  5.2780022E+01
 2.3290495E+01  5.1834267E+01
 2.3505154E+01  5.0936333E+01
 2.3719812E+01  5.0155964E+01
 2.3934471E+01  4.9431973E+01
 2.4149130E+01  4.8674870E+01
 2.4363789E+01  4.7884838E+01
 2.4578447E+01  4.7121487E+01
 2.4793106E+01  4.6412571E+01
 2.5007765E+01  4.5817425E+01
 2.5222424E+01  4.5253109E+01
 2.5437084E+01  4.4631302E+01
 2.5651743E+01  4.4085587E+01
 2.5866402E+01  4.3549885E+01
 2.6081060E+01  4.2963455E+01
 2.6295719E+01  4.2392544E+01
 2.6510378E+01  4.1804287E+01
 2.6725037E+01  4.1241760E+01
 2.6939695E+01  4.0720657E+01
 2.7154354E+01  4.0171600E+01
 2.7369013E+01  3.9640339E+01
 2.7583673E+01  3.9191902E+01
 2.7798332E+01  3.8719707E+01
 2.8012991E+01  3.8294975E+01
 2.8227650E+01  3.7938919E+01
 2.8442308E+01  3.7691387E+01
 2.8656967E+01  3.7453152E+01
 2.8871626E+01  3.7021111E+01
 2.9086285E+01  3.6444862E+01
 2.9300943E+01  3.5919247E+01
 2.9515602E+01  3.5557148E+01
 2.9730263E+01  3.5257320E+01
 2.9944921E+01  3.5067921E+01
 3.0159580E+01  3.4881084E+01
 3.0374239E+01  3.4709110E+01
 3.0588898E+01  3.4650158E+01
 3.0803556E+01  3.4597107E+01
 3.1018215E+01  3.4463661E+01
 3.1232874E+01  3.4276302E+01
 3.1447533E+01  3.3869991E+01
 3.1662191E+01  3.3329624E+01
 3.1876852E+01  3.2849266E+01
 3.2091511E+01  3.2346542E+01
 3.2306168E+01  3.1930391E+01
 3.2520828E+01  3.1510611E+01
 3.2735485E+01  3.1027939E+01
 3.2950146E+01  3.0537533E+01
 3.3164806E+01  3.0055523E+01
 3.3379463E+01  2.9643173E+01
 3.3594124E+01  2.9207836E+01
 3.3808781E+01  2.8715094E+01
 3.4023441E+01  2.8229328E+01
 3.4238098E+01  2.7810249E+01
 3.4452759E+01  2.7428940E+01
 3.4667416E+01  2.7115654E+01
 3.4882076E+01  2.6839964E+01
 3.5096737E+01  2.6542393E+01
 3.5311394E+01  2.6317808E+01
 3.5526054E+01  2.6098225E+01
 3.5740711E+01  2.5818056E+01
 3.5955372E+01  2.5509020E+01
 3.6170029E+01  2.5250639E+01
 3.6384689E+01  2.5032282E+01
 3.6599346E+01  2.4868145E+01
 3.6814007E+01  2.4685768E+01
 3.7028667E+01  2.4505417E+01
 3.7243324E+01  2.4322260E+01
 3.7457985E+01  2.4138737E+01
 3.7672642E+01  2.3917246E+01
 3.7887302E+01  2.3705460E+01
 3.8101959E+01  2.3538376E+01
 3.8316620E+01  2.3368097E+01
 3.8531277E+01  2.3156839E+01
 3.8745937E+01  2.2993874E+01
 3.8960594E+01  2.2862679E+01
 3.9175255E+01  2.2716881E+01
 3.9389915E+01  2.2561277E+01
 3.9604572E+01  2.2429626E+01
 3.9819233E+01  2.2290327E+01
 4.0033890E+01  2.2147703E+01
 4.0248550E+01  2.1986879E+01
 4.0463207E+01  2.1816076E+01
 4.0677868E+01  2.1663906E+01
 4.0892525E+01  2.1527061E+01
 4.1107185E+01  2.1410982E+01
 4.1321846E+01  2.1249935E+01
 4.1536503E+01  2.1132088E+01
 4.1751163E+01  2.1037062E+01
 4.1965820E+01  2.0924982E+01
 4.2180481E+01  2.0813755E+01
 4.2395138E+01  2.0744507E+01
 4.2609798E+01  2.0666286E+01
 4.2824455E+01  2.0540903E+01
 4.3039116E+01  2.0444160E+01
 4.3253773E+01  2.0326729E+01
 4.3468433E+01  2.0228725E+01
 4.3683094E+01  2.0151405E+01
 4.3897751E+01  2.0070711E+01
 4.4112411E+01  1.9968878E+01
 4.4327068E+01  1.9844217E+01
 4.4541729E+01  1.9774902E+01
 4.4756386E+01  1.9670723E+01
 4.4971046E+01  1.9555162E+01
 4.5185703E+01  1.9469238E+01
 4.5400364E+01  1.9395948E+01
 4.5615025E+01  1.9340170E+01
 4.5829681E+01  1.9294647E+01
 4.6044342E+01  1.9244879E+01
 4.6258999E+01  1.9220367E+01
 4.6473660E+01  1.9157339E+01
 4.6688316E+01  1.9099960E+01
 4.6902977E+01  1.9052107E+01
 4.7117634E+01  1.9000256E+01
 4.7332294E+01  1.8948763E+01
 4.7546951E+01  1.8886921E+01
 4.7761612E+01  1.8826683E+01
 4.7976273E+01  1.8801399E+01
 4.8190929E+01  1.8780088E+01
 4.8405590E+01  1.8740520E+01
 4.8620247E+01  1.8720957E+01
 4.8834908E+01  1.8724478E+01
 4.9049564E+01  1.8719860E+01
 4.9264225E+01  1.8720690E+01
 4.9478882E+01  1.8717552E+01
 4.9693542E+01  1.8741455E+01
 4.9908203E+01  1.8779022E+01
 5.0122860E+01  1.8807085E+01
 5.0337521E+01  1.8817692E+01
 5.0552177E+01  1.8816706E+01
 5.0766838E+01  1.8820736E+01
 5.0981495E+01  1.8820400E+01
 5.1196156E+01  1.8808231E+01
 5.1410812E+01  1.8769205E+01
 5.1625473E+01  1.8766966E+01
 5.1840134E+01  1.8753616E+01
 5.2054790E+01  1.8732519E+01
 5.2269451E+01  1.8729156E+01
 5.2484108E+01  1.8741995E+01
 5.2698769E+01  1.8765638E+01
 5.2913425E+01  1.8760273E+01
 5.3128086E+01  1.8732603E+01
 5.3342743E+01  1.8707579E+01
 5.3557404E+01  1.8657625E+01
 5.3772060E+01  1.8633968E+01
 5.3986721E+01  1.8600861E+01
 5.4201382E+01  1.8535995E+01
 5.4416039E+01  1.8492218E+01
 5.4630699E+01  1.8457842E+01
 5.4845356E+01  1.8429186E+01
 5.5060017E+01  1.8389961E+01
 5.5274673E+01  1.8344591E+01
 5.5489334E+01  1.8320530E+01
 5.5703991E+01  1.8298748E+01
 5.5918652E+01  1.8257034E+01
 5.6133312E+01  1.8244579E+01
 5.6347969E+01  1.8244074E+01
 5.6562630E+01  1.8198767E+01
 5.6777287E+01  1.8186382E+01
 5.6991947E+01  1.8168062E+01
 5.7206604E+01  1.8104033E+01
 5.7421265E+01  1.8055916E+01
 5.7635921E+01  1.8021429E+01
 5.7850582E+01  1.7985205E+01
 5.8065239E+01  1.7975170E+01
 5.8279900E+01  1.7969839E+01
 5.8494560E+01  1.7913477E+01
 5.8709217E+01  1.7847839E+01
 5.8923878E+01  1.7782307E+01
 5.9138535E+01  1.7716993E+01
 5.9353195E+01  1.7639629E+01
 5.9567852E+01  1.7570185E+01
 5.9782513E+01  1.7478451E+01
 5.9997169E+01  1.7388588E+01
 6.0211830E+01  1.7329708E+01
 6.0426491E+01  1.7251051E+01
 6.0641148E+01  1.7154987E+01
 6.0855808E+01  1.7082710E+01
 6.1070465E+01  1.7025080E+01
 6.1285126E+01  1.6998308E+01
 6.1499783E+01  1.6946722E+01
 6.1714443E+01  1.6879084E+01
 6.1929100E+01  1.6811447E+01
 6.2143761E+01  1.6758152E+01
 6.2358421E+01  1.6688211E+01
 6.2573078E+01  1.6626431E+01
 6.2787739E+01  1.6544516E+01
 6.3002396E+01  1.6483377E+01
 6.3217056E+01  1.6432402E+01
 6.3431713E+01  1.6393711E+01
 6.3646374E+01  1.6323706E+01
 6.3861031E+01  1.6248343E+01
 6.4075691E+01  1.6193592E+01
 6.4290352E+01  1.6145760E+01
 6.4505013E+01  1.6096401E+01
 6.4719666E+01  1.6039501E+01
 6.4934326E+01  1.5973496E+01
 6.5148987E+01  1.5936143E+01
 6.5363647E+01  1.5881577E+01
 6.5578300E+01  1.5822018E+01
 6.5792961E+01  1.5777751E+01
 6.6007622E+01  1.5751113E+01
 6.6222282E+01  1.5694417E+01
 6.6436935E+01  1.5636328E+01
 6.6651596E+01  1.5588364E+01
 6.6866257E+01  1.5545073E+01
 6.7080917E+01  1.5511772E+01
 6.7295578E+01  1.5475165E+01
 6.7510231E+01  1.5456117E+01
 6.7724892E+01  1.5430367E+01
 6.7939552E+01  1.5389332E+01
 6.8154213E+01  1.5334208E+01
 6.8368866E+01  1.5307887E+01
 6.8583527E+01  1.5264637E+01
 6.8798187E+01  1.5222878E+01
 6.9012848E+01  1.5195666E+01
 6.9227509E+01  1.5168630E+01
 6.9442162E+01  1.5144366E+01
 6.9656822E+01  1.5096352E+01
 6.9871483E+01  1.5075603E+01
 7.0086143E+01  1.5028150E+01
 7.0300797E+01  1.4997032E+01
 7.0515457E+01  1.4961853E+01
 7.0730118E+01  1.4949387E+01
 7.0944778E+01  1.4933440E+01
 7.1159439E+01  1.4899426E+01
 7.1374092E+01  1.4865252E+01
 7.1588753E+01  1.4827212E+01
 7.1803413E+01  1.4797696E+01
 7.2018074E+01  1.4779093E+01
 7.2232727E+01  1.4739718E+01
 7.2447388E+01  1.4740979E+01
 7.2662048E+01  1.4705056E+01
 7.2876709E+01  1.4635272E+01
 7.3091370E+01  1.4629191E+01
 7.3306023E+01  1.4622128E+01
 7.3520683E+01  1.4596324E+01
 7.3735344E+01  1.4560103E+01
 7.3950005E+01  1.4539698E+01
 7.4164658E+01  1.4518552E+01
 7.4379318E+01  1.4491626E+01
 7.4593979E+01  1.4489766E+01
 7.4808640E+01  1.4512377E+01
 7.5023293E+01  1.4485069E+01
 7.5237953E+01  1.4454055E+01
 7.5452614E+01  1.4455406E+01
 7.5667274E+01  1.4439799E+01
 7.5881935E+01  1.4430898E+01
 7.6096588E+01  1.4410200E+01
 7.6311249E+01  1.4382202E+01
 7.6525909E+01  1.4378753E+01
 7.6740570E+01  1.4403652E+01
 7.6955223E+01  1.4385485E+01
 7.7169884E+01  1.4377427E+01
 7.7384544E+01  1.4355247E+01
 7.7599205E+01  1.4356687E+01
 7.7813866E+01  1.4347642E+01
 7.8028519E+01  1.4312879E+01
 7.8243179E+01  1.4305611E+01
 7.8457840E+01  1.4301014E+01
 7.8672501E+01  1.4263762E+01
 7.8887154E+01  1.4223450E+01
 7.9101814E+01  1.4207112E+01
 7.9316475E+01  1.4192851E+01
 7.9531136E+01  1.4174568E+01
 7.9745796E+01  1.4157816E+01
 7.9960449E+01  1.4129805E+01
 8.0175110E+01  1.4101381E+01
 8.0389771E+01  1.4074967E+01
 8.0604431E+01  1.4046453E+01
 8.0819084E+01  1.4008641E+01
 8.1033745E+01  1.4012942E+01
 8.1248405E+01  1.4001675E+01
 8.1463066E+01  1.3973408E+01
 8.1677727E+01  1.3970224E+01
 8.1892380E+01  1.3966284E+01
 8.2107040E+01  1.3966722E+01
 8.2321701E+01  1.3972121E+01
 8.2536362E+01  1.3955617E+01
 8.2751015E+01  1.3929564E+01
 8.2965675E+01  1.3945989E+01
 8.3180336E+01  1.3942789E+01
 8.3394997E+01  1.3920166E+01
 8.3609657E+01  1.3922928E+01
 8.3824310E+01  1.3904466E+01
 8.4038971E+01  1.3899020E+01
 8.4253632E+01  1.3895152E+01
 8.4468292E+01  1.3883498E+01
 8.4682945E+01  1.3900024E+01
 8.4897606E+01  1.3891171E+01
 8.5112267E+01  1.3879568E+01
 8.5326927E+01  1.3891399E+01
 8.5541580E+01  1.3890548E+01
 8.5756241E+01  1.3880931E+01
 8.5970901E+01  1.3874426E+01
 8.6185562E+01  1.3887995E+01
 8.6400223E+01  1.3882192E+01
 8.6614876E+01  1.3869930E+01
 8.6829536E+01  1.3896702E+01
 8.7044197E+01  1.3905033E+01
 8.7258858E+01  1.3898178E+01
 8.7473511E+01  1.3897679E+01
 8.7688171E+01  1.3879332E+01
 8.7902832E+01  1.3854689E+01
 8.8117493E+01  1.3811376E+01
 8.8332153E+01  1.3796711E+01
 8.8546806E+01  1.3802276E+01
 8.8761467E+01  1.3806530E+01
 8.8976128E+01  1.3785619E+01
 8.9190788E+01  1.3746383E+01
 8.9405441E+01  1.3714894E+01
 8.9620102E+01  1.3702810E+01
 8.9834763E+01  1.3662753E+01
 9.0049423E+01  1.3639686E+01
 9.0264084E+01  1.3644983E+01
 9.0478737E+01  1.3606545E+01
 9.0693398E+01  1.3560965E+01
 9.0908058E+01  1.3543797E+01
 9.1122719E+01  1.3529943E+01
 9.1337372E+01  1.3535129E+01
 9.1552032E+01  1.3510514E+01
 9.1766693E+01  1.3479628E+01
 9.1981354E+01  1.3476172E+01
 9.2196014E+01  1.3473130E+01
 9.2410667E+01  1.3455846E+01
 9.2625328E+01  1.3445605E+01
 9.2839989E+01  1.3419917E+01
 9.3054649E+01  1.3373734E+01
 9.3269302E+01  1.3347737E+01
 9.3483963E+01  1.3321258E+01
 9.3698624E+01  1.3282887E+01
 9.3913284E+01  1.3257142E+01
 9.4127945E+01  1.3215191E+01
 9.4342598E+01  1.3172227E+01
 9.4557259E+01  1.3178064E+01
 9.4771919E+01  1.3159867E+01
 9.4986580E+01  1.3120121E+01
 9.5201233E+01  1.3102660E+01
 9.5415894E+01  1.3093241E+01
 9.5630554E+01  1.3085151E+01
 9.5845215E+01  1.3065863E+01
 9.6059868E+01  1.3024586E+01
 9.6274529E+01  1.2999462E+01
 9.6489189E+01  1.2970869E+01
 9.6703850E+01  1.2946851E+01
 9.6918510E+01  1.2916674E+01
 9.7133163E+01  1.2916578E+01
 9.7347824E+01  1.2913735E+01
 9.7562485E+01  1.2909883E+01
 9.7777145E+01  1.2900387E+01
 9.7991798E+01  1.2875714E+01
 9.8206459E+01  1.2863209E+01
 9.8421120E+01  1.2841888E+01
 9.8635780E+01  1.2831012E+01
 9.8850441E+01  1.2831993E+01
 9.9065094E+01  1.2816130E+01
 9.9279755E+01  1.2818666E+01
 9.9494415E+01  1.2810000E+01
 9.9709076E+01  1.2793046E+01
 9.9923729E+01  1.2796512E+01
 1.0013839E+02  1.2777099E+01
 1.0035305E+02  1.2757203E+01
 1.0056771E+02  1.2752151E+01
 1.0078237E+02  1.2751319E+01
 1.0099702E+02  1.2752111E+01
 1.0121169E+02  1.2735867E+01
 1.0142635E+02  1.2715895E+01
 1.0164101E+02  1.2718393E+01
 1.0185566E+02  1.2699320E+01
 1.0207032E+02  1.2685080E+01
 1.0228498E+02  1.2679375E+01
 1.0249964E+02  1.2684462E+01
 1.0271430E+02  1.2679420E+01
 1.0292896E+02  1.2659270E+01
 1.0314362E+02  1.2660503E+01
 1.0335828E+02  1.2647046E+01
 1.0357294E+02  1.2642673E+01
 1.0378759E+02  1.2623476E+01
 1.0400225E+02  1.2608784E+01
 1.0421691E+02  1.2610641E+01
 1.0443157E+02  1.2606293E+01
 1.0464623E+02  1.2590663E+01
 1.0486089E+02  1.2572229E+01
 1.0507555E+02  1.2578012E+01
 1.0529021E+02  1.2573424E+01
 1.0550487E+02  1.2573188E+01
 1.0571952E+02  1.2564795E+01
 1.0593418E+02  1.2537515E+01
 1.0614884E+02  1.2523708E+01
 1.0636350E+02  1.2513600E+01
 1.0657816E+02  1.2508848E+01
 1.0679282E+02  1.2512674E+01
 1.0700748E+02  1.2480101E+01
 1.0722214E+02  1.2477690E+01
 1.0743680E+02  1.2465981E+01
 1.0765145E+02  1.2436234E+01
 1.0786611E+02  1.2430162E+01
 1.0808077E+02  1.2394796E+01
 1.0829543E+02  1.2385616E+01
 1.0851009E+02  1.2385613E+01
 1.0872475E+02  1.2350142E+01
 1.0893941E+02  1.2339106E+01
 1.0915407E+02  1.2335365E+01
 1.0936873E+02  1.2310518E+01
 1.0958338E+02  1.2285737E+01
 1.0979804E+02  1.2281067E+01
 1.1001270E+02  1.2276000E+01
 1.1022736E+02  1.2275133E+01
 1.1044202E+02  1.2237036E+01
 1.1065668E+02  1.2201366E+01
 1.1087134E+02  1.2192102E+01
 1.1108600E+02  1.2199608E+01
 1.1130066E+02  1.2157928E+01
 1.1151531E+02  1.2127545E+01
 1.1172997E+02  1.2105275E+01
 1.1194463E+02  1.2101002E+01
 1.1215929E+02  1.2095901E+01
 1.1237395E+02  1.2062662E+01
 1.1258861E+02  1.2040198E+01
 1.1280327E+02  1.2014335E+01
 1.1301793E+02  1.1985605E+01
 1.1323259E+02  1.1957162E+01
 1.1344724E+02  1.1938451E+01
 1.1366190E+02  1.1929076E+01
 1.1387656E+02  1.1904963E+01
 1.1409122E+02  1.1886351E+01
 1.1430588E+02  1.1880921E+01
 1.1452054E+02  1.1855127E+01
 1.1473520E+02  1.1820930E+01
 1.1494986E+02  1.1807823E+01
 1.1516451E+02  1.1790105E+01
 1.1537917E+02  1.1771065E+01
 1.1559383E+02  1.1737282E+01
 1.1580849E+02  1.1705802E+01
 1.1602316E+02  1.1694376E+01
 1.1623781E+02  1.1679408E+01
 1.1645247E+02  1.1643888E+01
 1.1666713E+02  1.1636146E+01
 1.1688179E+02  1.1625588E+01
 1.1709644E+02  1.1602500E+01
 1.1731110E+02  1.1604942E+01
 1.1752576E+02  1.1573328E+01
 1.1774043E+02  1.1539931E+01
 1.1795509E+02  1.1529142E+01
 1.1816974E+02  1.1507676E+01
 1.1838440E+02  1.1490198E+01
 1.1859906E+02  1.1481460E+01
 1.1881372E+02  1.1477160E+01
 1.1902837E+02  1.1462607E+01
 1.1924303E+02  1.1431611E+01
 1.1945770E+02  1.1405156E+01
 1.1967236E+02  1.1396573E+01
 1.1988702E+02  1.1383380E+01
 1.2010167E+02  1.1374020E+01
 1.2031633E+02  1.1338612E+01
 1.2053099E+02  1.1318882E+01
 1.2074565E+02  1.1315931E+01
 1.2096030E+02  1.1290483E+01
 1.2117496E+02  1.1273421E+01
 1.2138963E+02  1.1261773E+01
 1.2160429E+02  1.1258792E+01
 1.2181895E+02  1.1248717E+01
 1.2203360E+02  1.1234695E+01
 1.2224826E+02  1.1225753E+01
 1.2246292E+02  1.1213933E+01
 1.2267758E+02  1.1191013E+01
 1.2289223E+02  1.1164316E+01
 1.2310690E+02  1.1143623E+01
 1.2332156E+02  1.1149984E+01
 1.2353622E+02  1.1130478E+01
 1.2375088E+02  1.1110455E+01
 1.2396553E+02  1.1092786E+01
 1.2418019E+02  1.1085949E+01
 1.2439485E+02  1.1070521E+01
 1.2460951E+02  1.1045792E+01
 1.2482417E+02  1.1035780E+01
 1.2503883E+02  1.1037047E+01
 1.2525349E+02  1.1017066E+01
 1.2546815E+02  1.1012371E+01
 1.2568280E+02  1.1000860E+01
 1.2589746E+02  1.0978774E+01
 1.2611212E+02  1.0986837E+01
 1.2632678E+02  1.0979679E+01
 1.2654144E+02  1.0972630E+01
 1.2675610E+02  1.0963861E+01
 1.2697076E+02  1.0944716E+01
 1.2718542E+02  1.0932326E+01
 1.2740008E+02  1.0915987E+01
 1.2761473E+02  1.0891104E+01
 1.2782939E+02  1.0878724E+01
 1.2804405E+02  1.0877631E+01
 1.2825871E+02  1.0860342E+01
 1.2847337E+02  1.0851515E+01
 1.2868803E+02  1.0864204E+01
 1.2890269E+02  1.0830027E+01
 1.2911734E+02  1.0809469E+01
 1.2933200E+02  1.0804496E+01
 1.2954666E+02  1.0781940E+01
 1.2976132E+02  1.0783747E+01
 1.2997598E+02  1.0762207E+01
 1.3019064E+02  1.0742719E+01
 1.3040530E+02  1.0752842E+01
 1.3061996E+02  1.0734932E+01
 1.3083463E+02  1.0724829E+01
 1.3104927E+02  1.0721504E+01
 1.3126393E+02  1.0707293E+01
 1.3147859E+02  1.0682096E+01
 1.3169325E+02  1.0678155E+01
 1.3190791E+02  1.0673846E+01
 1.3212257E+02  1.0673052E+01
 1.3233723E+02  1.0634599E+01
 1.3255190E+02  1.0615328E+01
 1.3276656E+02  1.0621078E+01
 1.3298120E+02  1.0615888E+01
 1.3319586E+02  1.0601063E+01
 1.3341052E+02  1.0599034E+01
 1.3362518E+02  1.0596115E+01
 1.3383984E+02  1.0588329E+01
 1.3405450E+02  1.0580817E+01
 1.3426917E+02  1.0558877E+01
 1.3448383E+02  1.0554731E+01
 1.3469849E+02  1.0529633E+01
 1.3491313E+02  1.0505241E+01
 1.3512779E+02  1.0507838E+01
 1.3534245E+02  1.0516654E+01
 1.3555711E+02  1.0500879E+01
 1.3577177E+02  1.0479217E+01
 1.3598643E+02  1.0475957E+01
 1.3620110E+02  1.0475748E+01
 1.3641576E+02  1.0469815E+01
 1.3663042E+02  1.0464228E+01
 1.3684506E+02  1.0465959E+01
 1.3705972E+02  1.0453240E+01
 1.3727438E+02  1.0426179E+01
 1.3748904E+02  1.0407665E+01
 1.3770370E+02  1.0407353E+01
 1.3791837E+02  1.0390211E+01
 1.3813303E+02  1.0378662E+01
 1.3834769E+02  1.0366281E+01
 1.3856235E+02  1.0349586E+01
 1.3877699E+02  1.0332108E+01
 1.3899165E+02  1.0313560E+01
 1.3920631E+02  1.0298473E+01
 1.3942097E+02  1.0303418E+01
 1.3963564E+02  1.0290895E+01
 1.3985030E+02  1.0285653E+01
 1.4006496E+02  1.0263936E+01
 1.4027962E+02  1.0255280E+01
 1.4049426E+02  1.0243133E+01
 1.4070892E+02  1.0217942E+01
 1.4092358E+02  1.0199226E+01
 1.4113824E+02  1.0183024E+01
 1.4135291E+02  1.0161538E+01
 1.4156757E+02  1.0146266E+01
 1.4178223E+02  1.0134616E+01
 1.4199689E+02  1.0112355E+01
 1.4221155E+02  1.0100207E+01
 1.4242619E+02  1.0084638E+01
 1.4264085E+02  1.0057580E+01
 1.4285551E+02  1.0054436E+01
 1.4307018E+02  1.0024934E+01
 1.4328484E+02  1.0002616E+01
 1.4349950E+02  1.0016150E+01
 1.4371416E+02  9.9790859E+00
 1.4392882E+02  9.9739151E+00
 1.4414348E+02  9.9624224E+00
 1.4435812E+02  9.9455271E+00
 1.4457278E+02  9.9235153E+00
 1.4478745E+02  9.9052353E+00
 1.4500211E+02  9.8925524E+00
 1.4521677E+02  9.8829279E+00
 1.4543143E+02  9.8803101E+00
 1.4564609E+02  9.8483953E+00
 1.4586075E+02  9.8304482E+00
 1.4607541E+02  9.8414078E+00
 1.4629005E+02  9.8313227E+00
 1.4650471E+02  9.8142042E+00
 1.4671938E+02  9.7857981E+00
 1.4693404E+02  9.7678175E+00
 1.4714870E+02  9.7544279E+00
 1.4736336E+02  9.7600079E+00
 1.4757802E+02  9.7479048E+00
 1.4779268E+02  9.7191429E+00
 1.4800734E+02  9.7043734E+00
 1.4822198E+02  9.6898203E+00
 1.4843665E+02  9.6739006E+00
 1.4865131E+02  9.6598330E+00
 1.4886597E+02  9.6647596E+00
 1.4908063E+02  9.6522884E+00
 1.4929529E+02  9.6429176E+00
 1.4950995E+02  9.6275387E+00
 1.4972461E+02  9.5983591E+00
 1.4993927E+02  9.5821123E+00
 1.5015392E+02  9.5722780E+00
 1.5036858E+02  9.5680704E+00
 1.5058324E+02  9.5552797E+00
 1.5079790E+02  9.5406485E+00
 1.5101256E+02  9.5114851E+00
 1.5122722E+02  9.4951067E+00
 1.5144188E+02  9.5160446E+00
 1.5165654E+02  9.4816113E+00
 1.5187120E+02  9.4664278E+00
 1.5208585E+02  9.4578695E+00
 1.5230051E+02  9.4625463E+00
 1.5251517E+02  9.4607229E+00
 1.5272983E+02  9.4460640E+00
 1.5294449E+02  9.4368505E+00
 1.5315915E+02  9.4148989E+00
 1.5337381E+02  9.3944960E+00
 1.5358847E+02  9.3900881E+00
 1.5380313E+02  9.3773899E+00
 1.5401778E+02  9.3926439E+00
 1.5423244E+02  9.3670082E+00
 1.5444710E+02  9.3455992E+00
 1.5466176E+02  9.3402491E+00
 1.5487642E+02  9.3410234E+00
 1.5509108E+02  9.3356638E+00
 1.5530574E+02  9.3178835E+00
 1.5552040E+02  9.3055010E+00
 1.5573506E+02  9.2983923E+00
 1.5594971E+02  9.2832708E+00
 1.5616437E+02  9.2727451E+00
 1.5637903E+02  9.2700806E+00
 1.5659369E+02  9.2398405E+00
 1.5680835E+02  9.2150230E+00
 1.5702301E+02  9.1998224E+00
 1.5723767E+02  9.2063751E+00
 1.5745233E+02  9.2021694E+00
 1.5766699E+02  9.1947832E+00
 1.5788164E+02  9.1994286E+00
 1.5809630E+02  9.1883354E+00
 1.5831096E+02  9.1592779E+00
 1.5852562E+02  9.1499796E+00
 1.5874028E+02  9.1368246E+00
 1.5895494E+02  9.1233168E+00
 1.5916960E+02  9.1196566E+00
 1.5938426E+02  9.0847874E+00
 1.5959892E+02  9.0689774E+00
 1.5981357E+02  9.0676718E+00
 1.6002823E+02  9.0698175E+00
 1.6024289E+02  9.0658617E+00
 1.6045755E+02  9.0375957E+00
 1.6067221E+02  9.0186434E+00
 1.6088687E+02  9.0006914E+00
 1.6110153E+02  9.0092001E+00
 1.6131619E+02  8.9953098E+00
 1.6153084E+02  8.9744883E+00
 1.6174550E+02  8.9559555E+00
 1.6196016E+02  8.9611769E+00
 1.6217482E+02  8.9609356E+00
 1.6238948E+02  8.9500103E+00
 1.6260414E+02  8.9306068E+00
 1.6281880E+02  8.9085455E+00
 1.6303346E+02  8.9004068E+00
 1.6324812E+02  8.8942299E+00
 1.6346277E+02  8.8725080E+00
 1.6367743E+02  8.8635330E+00
 1.6389209E+02  8.8534012E+00
 1.6410675E+02  8.8563747E+00
 1.6432141E+02  8.8521643E+00
 1.6453607E+02  8.8392000E+00
 1.6475073E+02  8.8268480E+00
 1.6496539E+02  8.8057604E+00
 1.6518005E+02  8.7975035E+00
 1.6539470E+02  8.7905083E+00
 1.6560936E+02  8.7702713E+00
 1.6582402E+02  8.7690248E+00
 1.6603868E+02  8.7484169E+00
 1.6625334E+02  8.7339239E+00
 1.6646800E+02  8.7308855E+00
 1.6668266E+02  8.7197723E+00
 1.6689732E+02  8.7105112E+00
 1.6711198E+02  8.6979408E+00
 1.6732663E+02  8.6931438E+00
 1.6754129E+02  8.6710434E+00
 1.6775595E+02  8.6623116E+00
 1.6797061E+02  8.6431961E+00
 1.6818527E+02  8.6256771E+00
 1.6839993E+02  8.6327114E+00
 1.6861459E+02  8.6197796E+00
 1.6882925E+02  8.6026392E+00
 1.6904391E+02  8.5925055E+00
 1.6925856E+02  8.5774422E+00
 1.6947322E+02  8.5736799E+00
 1.6968788E+02  8.5695381E+00
 1.6990254E+02  8.5649557E+00
 1.7011720E+02  8.5364962E+00
 1.7033186E+02  8.5399904E+00
 1.7054652E+02  8.5354567E+00
 1.7076118E+02  8.5091486E+00
 1.7097585E+02  8.5057154E+00
 1.7119049E+02  8.4895258E+00
 1.7140515E+02  8.4833727E+00
 1.7161981E+02  8.4735136E+00
 1.7183447E+02  8.4493399E+00
 1.7204913E+02  8.4342527E+00
 1.7226379E+02  8.4330063E+00
 1.7247845E+02  8.4197626E+00
 1.7269312E+02  8.4138117E+00
 1.7290778E+02  8.3983870E+00
 1.7312242E+02  8.3903742E+00
 1.7333708E+02  8.3802204E+00
 1.7355174E+02  8.3741903E+00
 1.7376640E+02  8.3691397E+00
 1.7398106E+02  8.3355207E+00
 1.7419572E+02  8.3271990E+00
 1.7441039E+02  8.3250475E+00
 1.7462505E+02  8.3049507E+00
 1.7483971E+02  8.3007622E+00
 1.7505435E+02  8.2973804E+00
 1.7526901E+02  8.2846212E+00
 1.7548367E+02  8.2791872E+00
 1.7569833E+02  8.2748976E+00
 1.7591299E+02  8.2594271E+00
 1.7612766E+02  8.2412186E+00
 1.7634232E+02  8.2290354E+00
 1.7655698E+02  8.2453890E+00
 1.7677164E+02  8.2259378E+00
 1.7698628E+02  8.2021036E+00
 1.7720094E+02  8.1850605E+00
 1.7741560E+02  8.1799974E+00
 1.7763026E+02  8.1744490E+00
 1.7784492E+02  8.1677761E+00
 1.7805959E+02  8.1579285E+00
 1.7827425E+02  8.1406012E+00
 1.7848891E+02  8.1314774E+00
 1.7870357E+02  8.1196356E+00
 1.7891821E+02  8.1168041E+00
 1.7913287E+02  8.1102743E+00
 1.7934753E+02  8.0908165E+00
 1.7956219E+02  8.0933371E+00
 1.7977686E+02  8.0806656E+00
 1.7999152E+02  8.0658760E+00
 1.8020618E+02  8.0581150E+00
 1.8042084E+02  8.0422649E+00
 1.8063548E+02  8.0347795E+00
 1.8085014E+02  8.0121593E+00
 1.8106480E+02  8.0100002E+00
 1.8127946E+02  7.9945154E+00
 1.8149413E+02  7.9819455E+00
 1.8170879E+02  7.9697547E+00
 1.8192345E+02  7.9635925E+00
 1.8213811E+02  7.9411831E+00
 1.8235277E+02  7.9320564E+00
 1.8256741E+02  7.9286685E+00
 1.8278207E+02  7.9136672E+00
 1.8299673E+02  7.9033699E+00
 1.8321140E+02  7.8961616E+00
 1.8342606E+02  7.8795433E+00
 1.8364072E+02  7.8603549E+00
 1.8385538E+02  7.8633132E+00
 1.8407004E+02  7.8438220E+00
 1.8428470E+02  7.8465638E+00
 1.8449934E+02  7.8235569E+00
 1.8471400E+02  7.8181639E+00
 1.8492867E+02  7.8123875E+00
 1.8514333E+02  7.7998476E+00
 1.8535799E+02  7.7834458E+00
 1.8557265E+02  7.7789640E+00
 1.8578731E+02  7.7601147E+00
 1.8600197E+02  7.7574844E+00
 1.8621663E+02  7.7425985E+00
 1.8643127E+02  7.7313838E+00
 1.8664594E+02  7.7237735E+00
 1.8686060E+02  7.7069197E+00
 1.8707526E+02  7.7056818E+00
 1.8728992E+02  7.6884904E+00
 1.8750458E+02  7.6764579E+00
 1.8771924E+02  7.6585741E+00
 1.8793390E+02  7.6627526E+00
 1.8814856E+02  7.6403742E+00
 1.8836320E+02  7.6250648E+00
 1.8857787E+02  7.6210179E+00
 1.8879253E+02  7.6054935E+00
 1.8900719E+02  7.6031556E+00
 1.8922185E+02  7.6048274E+00
 1.8943651E+02  7.5878172E+00
 1.8965117E+02  7.5627084E+00
 1.8986583E+02  7.5511808E+00
 1.9008049E+02  7.5349617E+00
 1.9029514E+02  7.5223160E+00
 1.9050980E+02  7.5066180E+00
 1.9072446E+02  7.5019474E+00
 1.9093912E+02  7.4911990E+00
 1.9115378E+02  7.4861364E+00
 1.9136844E+02  7.4835982E+00
 1.9158310E+02  7.4628859E+00
 1.9179776E+02  7.4490042E+00
 1.9201242E+02  7.4411149E+00
 1.9222707E+02  7.4340525E+00
 1.9244173E+02  7.4054284E+00
 1.9265639E+02  7.3996925E+00
 1.9287105E+02  7.4018607E+00
 1.9308571E+02  7.3732591E+00
 1.9330037E+02  7.3586416E+00
 1.9351503E+02  7.3639927E+00
 1.9372969E+02  7.3546739E+00
 1.9394435E+02  7.3405170E+00
 1.9415900E+02  7.3348556E+00
 1.9437366E+02  7.3047366E+00
 1.9458832E+02  7.2862015E+00
 1.9480298E+02  7.2684770E+00
 1.9501764E+02  7.2643528E+00
 1.9523230E+02  7.2453570E+00
 1.9544696E+02  7.2433338E+00
 1.9566162E+02  7.2453837E+00
 1.9587628E+02  7.2246323E+00
 1.9609093E+02  7.1990728E+00
 1.9630559E+02  7.1852126E+00
 1.9652025E+02  7.1613865E+00
 1.9673491E+02  7.1609030E+00
 1.9694957E+02  7.1574636E+00
 1.9716423E+02  7.1348734E+00
 1.9737889E+02  7.1367722E+00
 1.9759355E+02  7.1164703E+00
 1.9780821E+02  7.0948501E+00
 1.9802286E+02  7.0741897E+00
 1.9823752E+02  7.0824738E+00
 1.9845218E+02  7.0546012E+00
 1.9866684E+02  7.0645242E+00
 1.9888150E+02  7.0440207E+00
 1.9909616E+02  7.0284629E+00
 1.9931082E+02  7.0075817E+00
 1.9952548E+02  7.0120130E+00
 1.9974014E+02  6.9959726E+00
 1.9995479E+02  6.9848609E+00
 2.0016945E+02  6.9656582E+00
 2.0038411E+02  6.9602895E+00
 2.0059877E+02  6.9536386E+00
 2.0081343E+02  6.9360237E+00
 2.0102809E+02  6.9293394E+00
 2.0124275E+02  6.9119568E+00
 2.0145741E+02  6.8955770E+00
 2.0167206E+02  6.8994770E+00
 2.0188672E+02  6.8797626E+00
 2.0210138E+02  6.8757672E+00
 2.0231604E+02  6.8561549E+00
 2.0253070E+02  6.8426433E+00
 2.0274536E+02  6.8404760E+00
 2.0296002E+02  6.8201327E+00
 2.0317468E+02  6.7948656E+00
 2.0338934E+02  6.7896399E+00
 2.0360399E+02  6.7710118E+00
 2.0381865E+02  6.7540436E+00
 2.0403331E+02  6.7553177E+00
 2.0424797E+02  6.7489080E+00
 2.0446263E+02  6.7419481E+00
 2.0467729E+02  6.7315974E+00
 2.0489195E+02  6.7131453E+00
 2.0510661E+02  6.7052765E+00
 2.0532127E+02  6.6993737E+00
 2.0553592E+02  6.6864333E+00
 2.0575058E+02  6.6782174E+00
 2.0596524E+02  6.6519141E+00
 2.0617990E+02  6.6283741E+00
 2.0639456E+02  6.6272163E+00
 2.0660922E+02  6.6258373E+00
 2.0682388E+02  6.6087165E+00
 2.0703854E+02  6.6125116E+00
 2.0725320E+02  6.5907059E+00
 2.0746785E+02  6.5752006E+00
 2.0768251E+02  6.5695114E+00
 2.0789717E+02  6.5596271E+00
 2.0811183E+02  6.5507665E+00
 2.0832649E+02  6.5347848E+00
 2.0854115E+02  6.5130858E+00
 2.0875581E+02  6.5160017E+00
 2.0897047E+02  6.5005970E+00
 2.0918513E+02  6.4910140E+00
 2.0939978E+02  6.4640679E+00
 2.0961444E+02  6.4693255E+00
 2.0982910E+02  6.4516616E+00
 2.1004376E+02  6.4492660E+00
 2.1025842E+02  6.4397836E+00
 2.1047308E+02  6.4191976E+00
 2.1068774E+02  6.4090633E+00
 2.1090240E+02  6.3993058E+00
 2.1111707E+02  6.3843174E+00
 2.1133171E+02  6.3824348E+00
 2.1154637E+02  6.3774261E+00
 2.1176103E+02  6.3560257E+00
 2.1197569E+02  6.3587375E+00
 2.1219035E+02  6.3589764E+00
 2.1240501E+02  6.3405666E+00
 2.1261967E+02  6.3321786E+00
 2.1283434E+02  6.3206463E+00
 2.1304900E+02  6.3086662E+00
 2.1326364E+02  6.2831502E+00
 2.1347830E+02  6.2719040E+00
 2.1369296E+02  6.2750964E+00
 2.1390762E+02  6.2698441E+00
 2.1412228E+02  6.2596498E+00
 2.1433694E+02  6.2516994E+00
 2.1455161E+02  6.2416234E+00
 2.1476627E+02  6.2153182E+00
 2.1498093E+02  6.2129264E+00
 2.1519557E+02  6.2076111E+00
 2.1541023E+02  6.1988540E+00
 2.1562489E+02  6.1868510E+00
 2.1583955E+02  6.1843801E+00
 2.1605421E+02  6.1756024E+00
 2.1626888E+02  6.1576600E+00
 2.1648354E+02  6.1487718E+00
 2.1669820E+02  6.1195884E+00
 2.1691286E+02  6.1272659E+00
 2.1712750E+02  6.1193390E+00
 2.1734216E+02  6.0926380E+00
 2.1755682E+02  6.0830488E+00
 2.1777148E+02  6.0794826E+00
 2.1798615E+02  6.0688715E+00
 2.1820081E+02  6.0694990E+00
 2.1841547E+02  6.0548339E+00
 2.1863013E+02  6.0428720E+00
 2.1884479E+02  6.0288105E+00
 2.1905943E+02  6.0182719E+00
 2.1927409E+02  6.0114994E+00
 2.1948875E+02  5.9952378E+00
 2.1970341E+02  5.9918323E+00
 2.1991808E+02  5.9839454E+00
 2.2013274E+02  5.9646873E+00
 2.2034740E+02  5.9626098E+00
 2.2056206E+02  5.9685330E+00
 2.2077670E+02  5.9506421E+00
 2.2099136E+02  5.9381824E+00
 2.2120602E+02  5.9201403E+00
 2.2142068E+02  5.9088702E+00
 2.2163535E+02  5.9088984E+00
 2.2185001E+02  5.8904166E+00
 2.2206467E+02  5.8689466E+00
 2.2227933E+02  5.8709912E+00
 2.2249399E+02  5.8583126E+00
 2.2270863E+02  5.8513441E+00
 2.2292329E+02  5.8288465E+00
 2.2313795E+02  5.8237629E+00
 2.2335262E+02  5.8279705E+00
 2.2356728E+02  5.8074069E+00
 2.2378194E+02  5.7954593E+00
 2.2399660E+02  5.7806773E+00
 2.2421126E+02  5.7904720E+00
 2.2442592E+02  5.7851019E+00
 2.2464056E+02  5.7591920E+00
 2.2485522E+02  5.7523928E+00
 2.2506989E+02  5.7509046E+00
 2.2528455E+02  5.7371826E+00
 2.2549921E+02  5.7173991E+00
 2.2571387E+02  5.6999674E+00
 2.2592853E+02  5.7040062E+00
 2.2614319E+02  5.6999164E+00
 2.2635785E+02  5.6756210E+00
 2.2657249E+02  5.6730709E+00
 2.2678716E+02  5.6663437E+00
 2.2700182E+02  5.6479440E+00
 2.2721648E+02  5.6368313E+00
 2.2743114E+02  5.6485906E+00
 2.2764580E+02  5.6210914E+00
 2.2786046E+02  5.6110311E+00
 2.2807512E+02  5.6027193E+00
 2.2828978E+02  5.5965252E+00
 2.2850443E+02  5.5779443E+00
 2.2871909E+02  5.5661697E+00
 2.2893375E+02  5.5530634E+00
 2.2914841E+02  5.5547571E+00
 2.2936307E+02  5.5520511E+00
 2.2957773E+02  5.5308032E+00
 2.2979239E+02  5.5226059E+00
 2.3000705E+02  5.5205889E+00
 2.3022171E+02  5.5054364E+00
 2.3043636E+02  5.4874778E+00
 2.3065102E+02  5.4910588E+00
 2.3086568E+02  5.4837189E+00
 2.3108034E+02  5.4588184E+00
 2.3129500E+02  5.4454851E+00
 2.3150966E+02  5.4457660E+00
 2.3172432E+02  5.4410567E+00
 2.3193898E+02  5.4281507E+00
 2.3215364E+02  5.4239645E+00
 2.3236829E+02  5.4028096E+00
 2.3258295E+02  5.4026413E+00
 2.3279761E+02  5.3893924E+00
 2.3301227E+02  5.3845344E+00
 2.3322693E+02  5.3527851E+00
 2.3344159E+02  5.3477092E+00
 2.3365625E+02  5.3407478E+00
 2.3387091E+02  5.3299546E+00
 2.3408557E+02  5.3214192E+00
 2.3430022E+02  5.3196445E+00
 2.3451488E+02  5.3033853E+00
 2.3472954E+02  5.2848248E+00
 2.3494420E+02  5.2740788E+00
 2.3515886E+02  5.2832212E+00
 2.3537352E+02  5.2679753E+00
 2.3558818E+02  5.2498260E+00
 2.3580284E+02  5.2484546E+00
 2.3601750E+02  5.2330194E+00
 2.3623215E+02  5.2176533E+00
 2.3644681E+02  5.2087975E+00
 2.3666147E+02  5.1982269E+00
 2.3687613E+02  5.1932511E+00
 2.3709079E+02  5.1760793E+00
 2.3730545E+02  5.1729794E+00
 2.3752011E+02  5.1635060E+00
 2.3773477E+02  5.1522431E+00
 2.3794943E+02  5.1267595E+00
 2.3816408E+02  5.1232514E+00
 2.3837874E+02  5.1164122E+00
 2.3859340E+02  5.1132898E+00
 2.3880806E+02  5.1016998E+00
 2.3902272E+02  5.0913358E+00
 2.3923738E+02  5.0684743E+00
 2.3945204E+02  5.0687976E+00
 2.3966670E+02  5.0623055E+00
 2.3988135E+02  5.0473638E+00
 2.4009601E+02  5.0460038E+00
 2.4031067E+02  5.0328269E+00
 2.4052533E+02  5.0316591E+00
 2.4073999E+02  5.0099678E+00
 2.4095465E+02  4.9919004E+00
 2.4116931E+02  4.9922872E+00
 2.4138397E+02  4.9923353E+00
 2.4159863E+02  4.9842234E+00
 2.4181328E+02  4.9714174E+00
 2.4202794E+02  4.9638305E+00
 2.4224260E+02  4.9496694E+00
 2.4245726E+02  4.9315581E+00
 2.4267192E+02  4.9233918E+00
 2.4288658E+02  4.9341354E+00
 2.4310124E+02  4.9085264E+00
 2.4331590E+02  4.9057283E+00
 2.4353056E+02  4.9034925E+00
 2.4374521E+02  4.8698311E+00
 2.4395987E+02  4.8858776E+00
 2.4417453E+02  4.8569593E+00
 2.4438919E+02  4.8446741E+00
 2.4460385E+02  4.8348274E+00
 2.4481851E+02  4.8306246E+00
 2.4503317E+02  4.8202600E+00
 2.4524783E+02  4.8341017E+00
 2.4546249E+02  4.8167229E+00
 2.4567714E+02  4.8065681E+00
 2.4589180E+02  4.7874470E+00
 2.4610646E+02  4.7828493E+00
 2.4632112E+02  4.7653160E+00
 2.4653578E+02  4.7543049E+00
 2.4675044E+02  4.7577190E+00
 2.4696510E+02  4.7472267E+00
 2.4717976E+02  4.7361073E+00
 2.4739442E+02  4.7143035E+00
 2.4760907E+02  4.7187080E+00
 2.4782373E+02  4.7053094E+00
 2.4803839E+02  4.6815782E+00
 2.4825305E+02  4.6740117E+00
 2.4846771E+02  4.6709762E+00
 2.4868237E+02  4.6689687E+00
 2.4889703E+02  4.6510835E+00
 2.4911169E+02  4.6371026E+00
 2.4932635E+02  4.6172776E+00
 2.4954100E+02  4.6236873E+00
 2.4975566E+02  4.6259556E+00
 2.4997032E+02  4.6006994E+00
 2.5018498E+02  4.6012602E+00
 2.5039964E+02  4.5878401E+00
 2.5061430E+02  4.5889301E+00
 2.5082896E+02  4.5704041E+00
 2.5104362E+02  4.5555596E+00
 2.5125829E+02  4.5559111E+00
 2.5147293E+02  4.5407262E+00
 2.5168759E+02  4.5334458E+00
 2.5190225E+02  4.5177965E+00
 2.5211691E+02  4.5210195E+00
 2.5233157E+02  4.5003614E+00
 2.5254623E+02  4.5084810E+00
 2.5276089E+02  4.4846087E+00
 2.5297556E+02  4.4801588E+00
 2.5319022E+02  4.4594102E+00
 2.5340486E+02  4.4474969E+00
 2.5361952E+02  4.4407110E+00
 2.5383418E+02  4.4366941E+00
 2.5404884E+02  4.4235120E+00
 2.5426350E+02  4.4181881E+00
 2.5447816E+02  4.4107175E+00
 2.5469283E+02  4.3991694E+00
 2.5490749E+02  4.3916216E+00
 2.5512215E+02  4.3739295E+00
 2.5533679E+02  4.3694415E+00
 2.5555145E+02  4.3408599E+00
 2.5576611E+02  4.3328786E+00
 2.5598077E+02  4.3311872E+00
 2.5619543E+02  4.3350372E+00
 2.5641010E+02  4.3114142E+00
 2.5662476E+02  4.2978115E+00
 2.5683942E+02  4.2867641E+00
 2.5705408E+02  4.2793298E+00
 2.5726874E+02  4.2709098E+00
 2.5748340E+02  4.2647352E+00
 2.5769806E+02  4.2526546E+00
 2.5791272E+02  4.2303681E+00
 2.5812735E+02  4.2184157E+00
 2.5834201E+02  4.2196712E+00
 2.5855667E+02  4.2083673E+00
 2.5877133E+02  4.1988950E+00
 2.5898599E+02  4.1859231E+00
 2.5920065E+02  4.1782994E+00
 2.5941531E+02  4.1603827E+00
 2.5962997E+02  4.1578808E+00
 2.5984464E+02  4.1651578E+00
 2.6005930E+02  4.1518345E+00
 2.6027396E+02  4.1384921E+00
 2.6048862E+02  4.1284475E+00
 2.6070328E+02  4.1277027E+00
 2.6091794E+02  4.1191754E+00
 2.6113260E+02  4.1129799E+00
 2.6134726E+02  4.1096458E+00
 2.6156192E+02  4.1162295E+00
 2.6177658E+02  4.1178827E+00
 2.6199121E+02  4.1216297E+00
 2.6220587E+02  4.1187854E+00
 2.6242053E+02  4.1032629E+00
 2.6263519E+02  4.1133270E+00
 2.6284985E+02  4.1089120E+00
 2.6306451E+02  4.1059408E+00
 2.6327917E+02  4.1059566E+00
 2.6349384E+02  4.0889297E+00
 2.6370850E+02  4.0930638E+00
 2.6392316E+02  4.0866904E+00
 2.6413782E+02  4.0668015E+00
 2.6435248E+02  4.0697579E+00
 2.6456714E+02  4.0621676E+00
 2.6478180E+02  4.0668592E+00
 2.6499646E+02  4.0452890E+00
 2.6521112E+02  4.0483308E+00
 2.6542578E+02  4.0349131E+00
 2.6564044E+02  4.0293250E+00
 2.6585507E+02  4.0315614E+00
 2.6606973E+02  4.0269752E+00
 2.6628439E+02  4.0235362E+00
 2.6649905E+02  4.0135355E+00
 2.6671371E+02  4.0003242E+00
 2.6692838E+02  3.9875448E+00
 2.6714304E+02  3.9932568E+00
 2.6735770E+02  3.9697094E+00
 2.6757236E+02  3.9711964E+00
 2.6778702E+02  3.9756384E+00
 2.6800168E+02  3.9695480E+00
 2.6821634E+02  3.9496450E+00
 2.6843100E+02  3.9300900E+00
 2.6864566E+02  3.9385216E+00
 2.6886032E+02  3.9106781E+00
 2.6907498E+02  3.9310346E+00
 2.6928964E+02  3.9113612E+00
 2.6950430E+02  3.9093029E+00
 2.6971893E+02  3.9028699E+00
 2.6993359E+02  3.9030390E+00
 2.7014825E+02  3.9009137E+00
 2.7036292E+02  3.8951797E+00
 2.7057758E+02  3.8723378E+00
 2.7079224E+02  3.8536265E+00
 2.7100690E+02  3.8659813E+00
 2.7122156E+02  3.8473449E+00
 2.7143622E+02  3.8461800E+00
 2.7165088E+02  3.8373466E+00
 2.7186554E+02  3.8492084E+00
 2.7208020E+02  3.8355644E+00
 2.7229486E+02  3.8163469E+00
 2.7250952E+02  3.8251109E+00
 2.7272418E+02  3.8390779E+00
 2.7293884E+02  3.7936034E+00
 2.7315350E+02  3.7973726E+00
 2.7336813E+02  3.8125615E+00
 2.7358279E+02  3.7854338E+00
 2.7379745E+02  3.7850597E+00
 2.7401212E+02  3.7808495E+00
 2.7422678E+02  3.7671766E+00
 2.7444144E+02  3.7581162E+00
 2.7465610E+02  3.7563019E+00
 2.7487076E+02  3.7585444E+00
 2.7508542E+02  3.7477646E+00
 2.7530008E+02  3.7549269E+00
 2.7551474E+02  3.7614174E+00
 2.7572940E+02  3.7355633E+00
 2.7594406E+02  3.7260299E+00
 2.7615872E+02  3.7169626E+00
 2.7637338E+02  3.7149241E+00
 2.7658804E+02  3.7081409E+00
 2.7680270E+02  3.7104247E+00
 2.7701736E+02  3.6688204E+00
 2.7723199E+02  3.6768799E+00
 2.7744666E+02  3.6600566E+00
 2.7766132E+02  3.6526716E+00
 2.7787598E+02  3.6636772E+00
 2.7809064E+02  3.6655929E+00
 2.7830530E+02  3.6385915E+00
 2.7851996E+02  3.6238310E+00
 2.7873462E+02  3.6365788E+00
 2.7894928E+02  3.6067767E+00
 2.7916394E+02  3.6186459E+00
 2.7937860E+02  3.6190696E+00
 2.7959326E+02  3.6338778E+00
 2.7980792E+02  3.6052315E+00
 2.8002258E+02  3.5796211E+00
 2.8023724E+02  3.5844681E+00
 2.8045190E+02  3.5658777E+00
 2.8066656E+02  3.5773122E+00
 2.8088123E+02  3.5568323E+00
 2.8109586E+02  3.5589314E+00
 2.8131052E+02  3.5300107E+00
 2.8152518E+02  3.5253050E+00
 2.8173984E+02  3.5249796E+00
 2.8195450E+02  3.5352144E+00
 2.8216916E+02  3.5120533E+00
 2.8238382E+02  3.5107951E+00
 2.8259848E+02  3.4918540E+00
 2.8281314E+02  3.4861007E+00
 2.8302780E+02  3.4775927E+00
 2.8324246E+02  3.4824822E+00
 2.8345712E+02  3.4339402E+00
 2.8367178E+02  3.4451308E+00
 2.8388644E+02  3.4711218E+00
 2.8410110E+02  3.4428880E+00
 2.8431577E+02  3.4303484E+00
 2.8453043E+02  3.4164631E+00
 2.8474509E+02  3.4157603E+00
 2.8495972E+02  3.4127665E+00
 2.8517438E+02  3.3919497E+00
 2.8538904E+02  3.3848886E+00
 2.8560370E+02  3.3936350E+00
 2.8581836E+02  3.3796711E+00
 2.8603302E+02  3.3782461E+00
 2.8624768E+02  3.3599513E+00
 2.8646234E+02  3.3702695E+00
 2.8667700E+02  3.3422186E+00
 2.8689166E+02  3.3560948E+00
 2.8710632E+02  3.3463838E+00
 2.8732098E+02  3.3291767E+00
 2.8753564E+02  3.3215714E+00
 2.8775031E+02  3.3389292E+00
 2.8796497E+02  3.3071957E+00
 2.8817963E+02  3.2906735E+00
 2.8839429E+02  3.2915921E+00
 2.8860895E+02  3.2790740E+00
 2.8882358E+02  3.2794430E+00
 2.8903824E+02  3.2767286E+00
 2.8925290E+02  3.2689760E+00
 2.8946756E+02  3.2557118E+00
 2.8968222E+02  3.2491713E+00
 2.8989688E+02  3.2515612E+00
 2.9011154E+02  3.2330794E+00
 2.9032620E+02  3.2377274E+00
 2.9054086E+02  3.2484138E+00
 2.9075552E+02  3.2487624E+00
 2.9097018E+02  3.2118361E+00
 2.9118484E+02  3.2240400E+00
 2.9139951E+02  3.2099304E+00
 2.9161417E+02  3.2035422E+00
 2.9182883E+02  3.1905501E+00
 2.9204349E+02  3.1944587E+00
 2.9225815E+02  3.1793015E+00
 2.9247278E+02  3.1828532E+00
 2.9268744E+02  3.1576586E+00
 2.9290210E+02  3.1809247E+00
 2.9311676E+02  3.1435447E+00
 2.9333142E+02  3.1319885E+00
 2.9354608E+02  3.1149123E+00
 2.9376074E+02  3.1505787E+00
 2.9397540E+02  3.1425681E+00
 2.9419006E+02  3.1242707E+00
 2.9440472E+02  3.1083379E+00
 2.9461938E+02  3.1184802E+00
 2.9483405E+02  3.1096756E+00
 2.9504871E+02  3.1233389E+00
 2.9526337E+02  3.0984528E+00
 2.9547803E+02  3.0984523E+00
 2.9569269E+02  3.0922661E+00
 2.9590735E+02  3.0617330E+00
 2.9612201E+02  3.0585732E+00
 2.9633664E+02  3.0457199E+00
 2.9655130E+02  3.0491107E+00
 2.9676596E+02  3.0403087E+00
 2.9698062E+02  3.0356445E+00
 2.9719528E+02  3.0351031E+00
 2.9740994E+02  3.0152957E+00
 2.9762460E+02  3.0175436E+00
 2.9783926E+02  3.0087402E+00
 2.9805392E+02  2.9888606E+00
 2.9826859E+02  2.9807620E+00
 2.9848325E+02  3.0242450E+00
 2.9869791E+02  2.9765177E+00
 2.9891257E+02  2.9922731E+00
 2.9912723E+02  2.9507687E+00
 2.9934189E+02  2.9761655E+00
 2.9955655E+02  2.9323912E+00
 2.9977121E+02  2.9548361E+00
 2.9998587E+02  2.9593415E+00
 3.0020050E+02  2.9570878E+00
 3.0041516E+02  2.9397871E+00
 3.0062982E+02  2.9214654E+00
 3.0084448E+02  2.8940766E+00
 3.0105914E+02  2.9030077E+00
 3.0127380E+02  2.8906696E+00
 3.0148846E+02  2.8728430E+00
 3.0170312E+02  2.9235280E+00
 3.0191779E+02  2.8643510E+00
 3.0213245E+02  2.8556647E+00
 3.0234711E+02  2.8676755E+00
 3.0256177E+02  2.8910136E+00
 3.0277643E+02  2.8665044E+00
 3.0299109E+02  2.8450489E+00
 3.0320575E+02  2.7964962E+00
 3.0342041E+02  2.7969108E+00
 3.0363507E+02  2.8101540E+00
 3.0384973E+02  2.8316185E+00
 3.0406436E+02  2.7963924E+00
 3.0427902E+02  2.7987618E+00
 3.0449368E+02  2.8158627E+00
 3.0470834E+02  2.8112457E+00
 3.0492300E+02  2.8022406E+00
 3.0513766E+02  2.7718303E+00
 3.0535233E+02  2.7540390E+00
 3.0556699E+02  2.7243822E+00
 3.0578165E+02  2.7019315E+00
 3.0599631E+02  2.7158463E+00
 3.0621097E+02  2.7235141E+00
 3.0642563E+02  2.6926849E+00
 3.0664029E+02  2.6835876E+00
 3.0685495E+02  2.6711521E+00
 3.0706961E+02  2.6909122E+00
 3.0728427E+02  2.6594326E+00
 3.0749893E+02  2.6630940E+00
 3.0771359E+02  2.6407783E+00
 3.0792822E+02  2.6297534E+00
 3.0814288E+02  2.6401265E+00
 3.0835754E+02  2.6691611E+00
 3.0857220E+02  2.6113265E+00
 3.0878687E+02  2.6167376E+00
 3.0900153E+02  2.5874836E+00
 3.0921619E+02  2.5655711E+00
 3.0943085E+02  2.5105226E+00
 3.0964551E+02  2.5495152E+00
 3.0986017E+02  2.4959426E+00
 3.1007483E+02  2.3925924E+00
 3.1028949E+02  2.3181155E+00
 3.1050415E+02  2.3099904E+00
 3.1071881E+02  2.4143968E+00
 3.1093347E+02  2.2845740E+00
 3.1114813E+02  2.2962158E+00
 3.1136279E+02  2.1492600E+00
 3.1157742E+02  2.0168214E+00
 3.1179208E+02  2.1736114E+00
 3.1200674E+02  2.2123215E+00
 3.1222141E+02  1.9932452E+00
 3.1243607E+02  2.0794349E+00
 3.1265073E+02  2.1392126E+00
 3.1286539E+02  2.3251705E+00
 3.1308005E+02  2.2126999E+00
 3.1329471E+02  2.2167759E+00
 3.1350937E+02  2.3399191E+00
 3.1372403E+02  0.0000000E+00
 3.1393869E+02  0.0000000E+00
 3.1415335E+02  0.0000000E+00
 3.1436801E+02  0.0000000E+00
 3.1458267E+02  0.0000000E+00
 3.1479733E+02  0.0000000E+00
 3.1501199E+02  0.0000000E+00
 3.1522665E+02  0.0000000E+00
 3.1544128E+02  0.0000000E+00
 3.1565594E+02  0.0000000E+00
 3.1587061E+02  0.0000000E+00
 3.1608527E+02  0.0000000E+00
 3.1629993E+02  0.0000000E+00
 3.1651459E+02  0.0000000E+00
 3.1672925E+02  0.0000000E+00
 3.1694391E+02  0.0000000E+00
 3.1715857E+02  0.0000000E+00
